


 TIME HISTORY FOR STORY NO.  5



    TIME   DISPLACEMENT    STORY DRIFT    STORY SHEAR   ACCELERATION     VELOCITY          DAMAGE    DAMAGE
                                                                                          BEAM-SLAB  COL-WALL

    .000     .00000E+00     .00000E+00     .00000E+00     .00000E+00     .00000E+00         .000      .000
    .010    -.61366E-06     .12422E-10    -.21001E-03     .68614E-04    -.51943E-05         .000      .000
    .020    -.11105E-06     .32052E-07     .39185E-03    -.40595E-03    -.22166E-04         .000      .000
    .030    -.10726E-05     .55601E-07     .38417E-02    -.43427E-03    -.42266E-04         .000      .000
    .040    -.94732E-06    -.23009E-07    -.77828E-03     .80719E-03    -.61538E-04         .000      .000
    .050    -.23906E-05    -.23937E-07     .19982E-02    -.16657E-03    -.10608E-03         .000      .000
    .060    -.31857E-05    -.51596E-07     .28822E-02    -.30414E-03    -.18587E-03         .000      .000
    .070    -.61625E-05    -.76036E-07     .68153E-02    -.95503E-03    -.28146E-03         .000      .000
    .080    -.88650E-05    -.15493E-06     .91058E-02    -.94461E-03    -.39291E-03         .000      .000
    .090    -.14094E-04    -.27411E-06     .17678E-01    -.15967E-02    -.52536E-03         .000      .000
    .100    -.19436E-04    -.62582E-06     .22449E-01    -.71454E-03    -.67771E-03         .000      .000
    .110    -.27689E-04    -.12414E-05     .30858E-01    -.58439E-03    -.84156E-03         .000      .000
    .120    -.36324E-04    -.22910E-05     .35997E-01     .75633E-04    -.10233E-02         .000      .000
    .130    -.48202E-04    -.38218E-05     .45160E-01    -.43433E-03    -.12181E-02         .000      .000
    .140    -.60687E-04    -.60313E-05     .49369E-01    -.54147E-04    -.14140E-02         .000      .000
    .150    -.75818E-04    -.89544E-05     .56308E-01    -.56631E-03    -.14102E-02         .000      .000
    .160    -.88657E-04    -.12800E-04     .58204E-01     .16263E-03    -.13366E-02         .000      .000
    .170    -.10376E-03    -.17785E-04     .54254E-01     .32903E-02    -.16233E-02         .000      .000
    .180    -.12210E-03    -.24058E-04     .19697E-01     .10042E-01    -.22048E-02         .000      .000
    .190    -.14827E-03    -.30612E-04    -.66437E-02     .60938E-02    -.29144E-02         .000      .000
    .200    -.18086E-03    -.36626E-04     .11206E-01    -.84652E-02    -.37656E-02         .000      .000
    .210    -.22354E-03    -.42485E-04     .62185E-01    -.18483E-01    -.45958E-02         .000      .000
    .220    -.27190E-03    -.49343E-04     .10153E+00    -.12478E-01    -.51640E-02         .000      .000
    .230    -.32618E-03    -.58046E-04     .13168E+00     .21708E-02    -.55449E-02         .000      .000
    .240    -.38234E-03    -.69604E-04     .13848E+00     .19308E-01    -.57905E-02         .000      .000
    .250    -.44151E-03    -.84506E-04     .12514E+00     .27713E-01    -.58948E-02         .000      .000
    .260    -.49906E-03    -.10273E-03     .98396E-01     .23484E-01    -.56485E-02         .000      .000
    .270    -.55178E-03    -.12396E-03     .69780E-01     .11367E-01    -.45889E-02         .000      .000
    .280    -.58873E-03    -.14825E-03     .14558E-01     .73232E-02    -.28919E-02         .000      .000
    .290    -.60907E-03    -.17568E-03    -.10305E+00     .22813E-01    -.10260E-02         .000      .000
    .300    -.60927E-03    -.20534E-03    -.32122E+00     .51808E-01     .82456E-03         .000      .000
    .310    -.59510E-03    -.23381E-03    -.57245E+00     .62624E-01     .19116E-02         .000      .000
    .320    -.57489E-03    -.25693E-03    -.78726E+00     .45000E-01     .18459E-02         .000      .000
    .330    -.55967E-03    -.27072E-03    -.91916E+00     .67632E-02     .13398E-02         .000      .000
    .340    -.54580E-03    -.27222E-03    -.92260E+00    -.34799E-01     .15277E-02         .000      .000
    .350    -.52082E-03    -.26147E-03    -.79716E+00    -.50282E-01     .42138E-02         .000      .000
    .360    -.45064E-03    -.24248E-03    -.65870E+00    -.11331E-01     .10163E-01         .000      .000
    .370    -.31686E-03    -.22084E-03    -.64664E+00     .79765E-01     .16320E-01         .000      .000
    .380    -.13835E-03    -.20004E-03    -.91606E+00     .18829E+00     .18228E-01         .000      .000
    .390     .28911E-04    -.17426E-03    -.13683E+01     .20795E+00     .14460E-01         .000      .000
    .400     .13900E-03    -.12827E-03    -.15225E+01     .36280E-01     .71260E-02         .000      .000
    .410     .17033E-03    -.50868E-04    -.95280E+00    -.25911E+00    -.47584E-03         .000      .000
    .420     .13013E-03     .51375E-04     .15316E+00    -.43169E+00    -.77936E-02         .000      .000
    .430     .17097E-04     .15745E-03     .11990E+01    -.30342E+00    -.14298E-01         .000      .000
    .440    -.14906E-03     .24712E-03     .18254E+01     .20936E-01    -.18863E-01         .000      .000
    .450    -.36050E-03     .30971E-03     .22747E+01     .25372E+00    -.23614E-01         .000      .000
    .460    -.62730E-03     .33751E-03     .27482E+01     .25367E+00    -.30159E-01         .000      .000
    .470    -.96527E-03     .32459E-03     .32078E+01     .64600E-01    -.37147E-01         .000      .000
    .480    -.13671E-02     .26875E-03     .36405E+01    -.17740E+00    -.43152E-01         .000      .000
    .490    -.18203E-02     .16651E-03     .39391E+01    -.29235E+00    -.46709E-01         .000      .000
    .500    -.22814E-02     .11503E-04     .38104E+01    -.17933E+00    -.44304E-01         .000      .000
    .510    -.26859E-02    -.19948E-03     .31605E+01     .78758E-01    -.35809E-01         .000      .000
    .520    -.29924E-02    -.46583E-03     .19606E+01     .35102E+00    -.25786E-01         .000      .000
    .530    -.32089E-02    -.77876E-03     .11042E+00     .52340E+00    -.17984E-01         .000      .000
    .540    -.33655E-02    -.11114E-02    -.20987E+01     .46373E+00    -.14243E-01         .000      .000
    .550    -.35031E-02    -.14239E-02    -.39958E+01     .15431E+00    -.13252E-01         .000      .000
    .560    -.36224E-02    -.16823E-02    -.52169E+01    -.20255E+00    -.97314E-02         .000      .000
    .570    -.36798E-02    -.18693E-02    -.58432E+01    -.33884E+00    -.77683E-03         .000      .000
    .580    -.36282E-02    -.19857E-02    -.63311E+01    -.97639E-01     .11098E-01         .000      .000
    .590    -.34587E-02    -.20388E-02    -.71451E+01     .39727E+00     .22634E-01         .000      .000
    .600    -.31991E-02    -.20234E-02    -.80825E+01     .74692E+00     .26955E-01         .000      .000
    .610    -.29712E-02    -.19221E-02    -.83884E+01     .63712E+00     .15767E-01         .000      .000
    .620    -.29375E-02    -.17186E-02    -.75555E+01     .10831E+00    -.11466E-01         .000      .000
    .630    -.32388E-02    -.14050E-02    -.51849E+01    -.58266E+00    -.50057E-01         .000      .000
    .640    -.39484E-02    -.99945E-03    -.11915E+01    -.10559E+01    -.91437E-01         .000      .000
    .650    -.50292E-02    -.55803E-03     .37783E+01    -.10007E+01    -.12128E+00         .000      .000
    .660    -.63044E-02    -.16656E-03     .87721E+01    -.42762E+00    -.13035E+00         .000      .000
    .670    -.75215E-02     .75589E-04     .12754E+02     .40470E+00    -.10516E+00         .000      .000
    .680    -.82798E-02     .78819E-04     .14634E+02     .11431E+01    -.41817E-01         .000      .000
    .690    -.83306E-02    -.21315E-03     .13629E+02     .15820E+01     .29676E-01         .000      .000
    .700    -.77531E-02    -.80520E-03     .85242E+01     .18004E+01     .81174E-01         .000      .000
    .710    -.67781E-02    -.15984E-02     .69493E-02     .14589E+01     .11120E+00         .000      .000
    .720    -.55904E-02    -.24022E-02    -.80283E+01     .15198E+00     .12284E+00         .000      .000
    .730    -.44051E-02    -.30533E-02    -.13045E+02    -.13648E+01     .10984E+00         .000      .000
    .740    -.34520E-02    -.34785E-02    -.16336E+02    -.17765E+01     .79667E-01         .000      .000
    .750    -.27881E-02    -.36394E-02    -.18902E+02    -.96618E+00     .56353E-01         .000      .000
    .760    -.22168E-02    -.35085E-02    -.19347E+02     .10224E+00     .65088E-01         .000      .000
    .770    -.13696E-02    -.31159E-02    -.17103E+02     .82008E+00     .10874E+00         .000      .000
    .780    -.11768E-04    -.25547E-02    -.14253E+02     .13321E+01     .16157E+00         .000      .000
    .790     .17993E-02    -.19067E-02    -.13390E+02     .17361E+01     .19562E+00         .000      .000
    .800     .38051E-02    -.11604E-02    -.14001E+02     .14418E+01     .20079E+00         .000      .000
    .810     .57354E-02    -.23128E-03    -.12575E+02    -.48362E-01     .18207E+00         .000      .000
    .820     .73881E-02     .92754E-03    -.69017E+01    -.20101E+01     .14631E+00         .000      .000
    .830     .86306E-02     .22561E-02     .14226E+01    -.29185E+01     .10175E+00         .000      .000
    .840     .94054E-02     .36248E-02     .93929E+01    -.20723E+01     .51866E-01         .000      .000
    .850     .96558E-02     .49055E-02     .15840E+02    -.29954E+00    -.21358E-02         .000      .000
    .860     .93550E-02     .60012E-02     .21547E+02     .90504E+00    -.58937E-01         .000      .000
    .870     .84550E-02     .68361E-02     .27696E+02     .68371E+00    -.12241E+00         .000      .000
    .880     .68868E-02     .73331E-02     .33999E+02    -.53071E+00    -.19155E+00         .000      .000
    .890     .46500E-02     .74201E-02     .39039E+02    -.16855E+01    -.25257E+00         .000      .000
    .900     .19379E-02     .70447E-02     .41862E+02    -.20359E+01    -.28274E+00         .000      .000
    .910    -.81137E-03     .61627E-02     .41850E+02    -.13613E+01    -.25496E+00         .000      .000
    .920    -.29180E-02     .47294E-02     .37770E+02     .16311E+00    -.15439E+00         .000      .000
    .930    -.37381E-02     .27250E-02     .27842E+02     .20963E+01    -.57213E-02         .000      .000
    .940    -.31047E-02     .21523E-03     .10484E+02     .38107E+01     .12104E+00         .000      .000
    .950    -.15851E-02    -.25670E-02    -.13316E+02     .42940E+01     .16715E+00         .000      .000
    .960    -.25313E-04    -.51903E-02    -.37439E+02     .23580E+01     .13394E+00         .000      .000
    .970     .10144E-02    -.71600E-02    -.52759E+02    -.18778E+01     .77431E-01         .000      .000
    .980     .16312E-02    -.81777E-02    -.55396E+02    -.57024E+01     .54518E-01         .000      .000
    .990     .23003E-02    -.82737E-02    -.50598E+02    -.55740E+01     .91139E-01         .000      .000
   1.000     .36210E-02    -.76803E-02    -.47083E+02    -.75422E+00     .17728E+00         .000      .000
   1.010     .58381E-02    -.65891E-02    -.47756E+02     .52987E+01     .25945E+00         .000      .000
   1.020     .86360E-02    -.50400E-02    -.48664E+02     .78961E+01     .28814E+00         .000      .000
   1.030     .11365E-01    -.29573E-02    -.43460E+02     .48238E+01     .24617E+00         .000      .000
   1.040     .13319E-01    -.27791E-03    -.28105E+02    -.19675E+01     .13359E+00         .000      .000
   1.050     .13818E-01     .29072E-02    -.45981E+01    -.76807E+01    -.42819E-01         .000      .000
   1.060     .12399E-01     .63366E-02     .21216E+02    -.86546E+01    -.23778E+00         .000      .000
   1.070     .92541E-02     .96662E-02     .46197E+02    -.53078E+01    -.37624E+00         .000      .000
   1.080     .51716E-02     .12491E-01     .70414E+02    -.63378E+00    -.42663E+00         .000      .000
   1.090     .93641E-03     .14323E-01     .90455E+02     .32007E+01    -.41305E+00         .000      .000
   1.100    -.30032E-02     .14733E-01     .99554E+02     .52355E+01    -.37393E+00         .000      .000
   1.110    -.65381E-02     .13576E-01     .95801E+02     .45735E+01    -.33387E+00         .000      .000
   1.120    -.96952E-02     .11019E-01     .83446E+02     .12473E+01    -.29787E+00         .000      .000
   1.130    -.12514E-01     .73716E-02     .66586E+02    -.26925E+01    -.26650E+00         .000      .000
   1.140    -.15065E-01     .29377E-02     .45246E+02    -.43119E+01    -.24615E+00         .000      .000
   1.150    -.17468E-01    -.19943E-02     .17828E+02    -.23747E+01    -.23494E+00         .000      .000
   1.160    -.19722E-01    -.70829E-02    -.13944E+02     .13745E+01    -.21224E+00         .000      .000
   1.170    -.21629E-01    -.11932E-01    -.44320E+02     .39289E+01    -.16533E+00         .000      .000
   1.180    -.22965E-01    -.16184E-01    -.68797E+02     .39941E+01    -.99428E-01         .000      .000
   1.190    -.23576E-01    -.19575E-01    -.87369E+02     .25743E+01    -.20733E-01         .000      .000
   1.200    -.23306E-01    -.21889E-01    -.10111E+03     .11467E+01     .80578E-01         .000      .000
   1.210    -.21851E-01    -.22942E-01    -.10923E+03     .45253E+00     .21598E+00         .000      .000
   1.220    -.18903E-01    -.22641E-01    -.11081E+03     .72964E+00     .37627E+00         .000      .000
   1.230    -.14278E-01    -.21018E-01    -.10716E+03     .19248E+01     .55081E+00         .000      .000
   1.240    -.79126E-02    -.18178E-01    -.99817E+02     .32154E+01     .71732E+00         .000      .000
   1.250    -.11360E-03    -.14233E-01    -.88548E+02     .34679E+01     .82901E+00         .000      .000
   1.260     .83679E-02    -.93001E-02    -.72833E+02     .22121E+01     .85088E+00         .000      .000
   1.270     .16658E-01    -.34902E-02    -.51322E+02    -.47213E+00     .79919E+00         .000      .000
   1.280     .24260E-01     .30439E-02    -.21629E+02    -.38635E+01     .72032E+00         .000      .000
   1.290     .31074E-01     .99833E-02     .15297E+02    -.60958E+01     .64504E+00         .000      .000
   1.300     .37218E-01     .16806E-01     .52469E+02    -.52708E+01     .58746E+00         .000      .000
   1.310     .42850E-01     .22948E-01     .82466E+02    -.18358E+01     .53730E+00         .000      .000
   1.320     .47830E-01     .27982E-01     .10318E+03     .14244E+01     .44590E+00         .000      .000
   1.330     .51607E-01     .31673E-01     .11642E+03     .18585E+01     .30554E+00         .000      .000
   1.340     .53922E-01     .33971E-01     .12584E+03    -.13356E+01     .15945E+00         .000      .000
   1.350     .54791E-01     .34887E-01     .13433E+03    -.61102E+01     .13214E-01         .000      .000
   1.360     .54151E-01     .34351E-01     .13723E+03    -.81936E+01    -.14207E+00         .000      .000
   1.370     .51988E-01     .32310E-01     .12756E+03    -.57469E+01    -.28625E+00         .000      .000
   1.380     .48553E-01     .28908E-01     .10741E+03    -.15252E+01    -.39373E+00         .000      .000
   1.390     .44250E-01     .24417E-01     .83740E+02     .10637E+01    -.46092E+00         .000      .000
   1.400     .39464E-01     .19093E-01     .58864E+02     .13126E+01    -.48917E+00         .000      .000
   1.410     .34598E-01     .13204E-01     .31383E+02     .37474E+00    -.47762E+00         .000      .000
   1.420     .29979E-01     .70912E-02     .12302E+01    -.48939E+00    -.44549E+00         .000      .000
   1.430     .25697E-01     .11586E-02    -.29975E+02    -.54474E+00    -.41059E+00         .000      .000
   1.440     .21796E-01    -.41708E-02    -.59260E+02     .22414E-02    -.36715E+00         .000      .000
   1.450     .18407E-01    -.85076E-02    -.82193E+02     .40586E+00    -.30787E+00         .000      .000
   1.460     .15699E-01    -.11593E-01    -.96503E+02     .63219E+00    -.23061E+00         .000      .000
   1.470     .13858E-01    -.13325E-01    -.10348E+03     .11443E+01    -.13436E+00         .000      .000
   1.480     .13033E-01    -.13687E-01    -.10449E+03     .18424E+01    -.31902E-01         .000      .000
   1.490     .13140E-01    -.12714E-01    -.99487E+02     .21806E+01     .46446E-01         .000      .000
   1.500     .13827E-01    -.10486E-01    -.88137E+02     .17310E+01     .84409E-01         .000      .000
   1.510     .14738E-01    -.71301E-02    -.69617E+02     .31482E+00     .95278E-01         .000      .000
   1.520     .15673E-01    -.28551E-02    -.43292E+02    -.15946E+01     .88591E-01         .000      .000
   1.530     .16434E-01     .19879E-02    -.11863E+02    -.26533E+01     .59589E-01         .000      .000
   1.540     .16765E-01     .69490E-02     .19283E+02    -.20109E+01     .58580E-03         .000      .000
   1.550     .16328E-01     .11605E-01     .47191E+02    -.57721E+00    -.94056E-01         .000      .000
   1.560     .14780E-01     .15612E-01     .72366E+02    -.18094E-01    -.22018E+00         .000      .000
   1.570     .11880E-01     .18678E-01     .95619E+02    -.10161E+01    -.35962E+00         .000      .000
   1.580     .76291E-02     .20527E-01     .11567E+03    -.27075E+01    -.48610E+00         .000      .000
   1.590     .22396E-02     .20898E-01     .12911E+03    -.34941E+01    -.58769E+00         .000      .000
   1.600    -.40266E-02     .19592E-01     .13194E+03    -.24132E+01    -.65981E+00         .000      .000
   1.610    -.10745E-01     .16549E-01     .12240E+03    -.11510E+00    -.66890E+00         .000      .000
   1.620    -.17104E-01     .11887E-01     .10264E+03     .17227E+01    -.58859E+00         .000      .000
   1.630    -.22324E-01     .58295E-02     .74800E+02     .25406E+01    -.45048E+00         .000      .000
   1.640    -.26055E-01    -.13242E-02     .36956E+02     .32748E+01    -.29425E+00         .000      .000
   1.650    -.28209E-01    -.90870E-02    -.10799E+02     .39399E+01    -.13831E+00         .000      .000
   1.660    -.28870E-01    -.16747E-01    -.61055E+02     .33944E+01     .25054E-02         .000      .000
   1.670    -.28257E-01    -.23556E-01    -.10574E+03     .16892E+01     .11419E+00         .000      .000
   1.680    -.26727E-01    -.28892E-01    -.14129E+03     .23756E+00     .18437E+00         .000      .000
   1.690    -.24691E-01    -.32292E-01    -.16636E+03     .63549E-01     .21849E+00         .000      .000
   1.700    -.22387E-01    -.33444E-01    -.17872E+03     .80663E+00     .24330E+00         .000      .000
   1.710    -.19754E-01    -.32221E-01    -.17558E+03     .14330E+01     .28891E+00         .000      .000
   1.720    -.16466E-01    -.28744E-01    -.15694E+03     .15955E+01     .37734E+00         .000      .000
   1.730    -.12109E-01    -.23376E-01    -.12698E+03     .17715E+01     .49546E+00         .000      .000
   1.740    -.65741E-02    -.16618E-01    -.91718E+02     .23199E+01     .60845E+00         .000      .000
   1.750     .25140E-04    -.89730E-02    -.55268E+02     .26237E+01     .71059E+00         .000      .000
   1.760     .75729E-02    -.86940E-03    -.17336E+02     .14771E+01     .79299E+00         .000      .000
   1.770     .15681E-01     .72698E-02     .22384E+02    -.87459E+00     .81473E+00         .000      .000
   1.780     .23617E-01     .14976E-01     .59374E+02    -.27068E+01     .76191E+00         .000      .000
   1.790     .30732E-01     .21850E-01     .90103E+02    -.34671E+01     .65272E+00         .000      .000
   1.800     .36497E-01     .27610E-01     .11604E+03    -.39113E+01     .49120E+00         .000      .000
   1.810     .40433E-01     .31994E-01     .13741E+03    -.41487E+01     .29291E+00         .000      .000
   1.820     .42352E-01     .34760E-01     .15202E+03    -.40114E+01     .93544E-01         .000      .000
   1.830     .42373E-01     .35750E-01     .15905E+03    -.36952E+01    -.84897E-01         .000      .000
