


 TIME HISTORY FOR STORY NO.  5



    TIME   DISPLACEMENT    STORY DRIFT    STORY SHEAR   ACCELERATION     VELOCITY          DAMAGE    DAMAGE
                                                                                          BEAM-SLAB  COL-WALL

    .000     .00000E+00     .00000E+00     .00000E+00     .00000E+00     .00000E+00         .000      .000
    .010    -.12273E-05     .24844E-10    -.42001E-03     .13723E-03    -.10389E-04         .000      .000
    .020    -.22209E-06     .64104E-07     .78370E-03    -.81190E-03    -.44333E-04         .000      .000
    .030    -.21453E-05     .11120E-06     .76834E-02    -.86853E-03    -.84531E-04         .000      .000
    .040    -.18946E-05    -.46017E-07    -.15566E-02     .16144E-02    -.12308E-03         .000      .000
    .050    -.47813E-05    -.47874E-07     .39964E-02    -.33313E-03    -.21215E-03         .000      .000
    .060    -.63714E-05    -.10319E-06     .57645E-02    -.60828E-03    -.37173E-03         .000      .000
    .070    -.12325E-04    -.15207E-06     .13631E-01    -.19101E-02    -.56291E-03         .000      .000
    .080    -.17730E-04    -.30985E-06     .18212E-01    -.18892E-02    -.78581E-03         .000      .000
    .090    -.28189E-04    -.54823E-06     .35356E-01    -.31935E-02    -.10507E-02         .000      .000
    .100    -.38872E-04    -.12516E-05     .44898E-01    -.14291E-02    -.13554E-02         .000      .000
    .110    -.55377E-04    -.24828E-05     .61717E-01    -.11688E-02    -.16831E-02         .000      .000
    .120    -.72648E-04    -.45820E-05     .71995E-01     .15127E-03    -.20467E-02         .000      .000
    .130    -.96403E-04    -.76435E-05     .90320E-01    -.86866E-03    -.24362E-02         .000      .000
    .140    -.12137E-03    -.12063E-04     .98738E-01    -.10829E-03    -.28280E-02         .000      .000
    .150    -.15164E-03    -.17909E-04     .11262E+00    -.11326E-02    -.28205E-02         .000      .000
    .160    -.17731E-03    -.25600E-04     .11641E+00     .32526E-03    -.26731E-02         .000      .000
    .170    -.20752E-03    -.35570E-04     .10851E+00     .65806E-02    -.32467E-02         .000      .000
    .180    -.24419E-03    -.48117E-04     .39393E-01     .20085E-01    -.44095E-02         .000      .000
    .190    -.29654E-03    -.61223E-04    -.13287E-01     .12188E-01    -.58287E-02         .000      .000
    .200    -.36173E-03    -.73252E-04     .22411E-01    -.16930E-01    -.75312E-02         .000      .000
    .210    -.44707E-03    -.84970E-04     .12437E+00    -.36966E-01    -.91915E-02         .000      .000
    .220    -.54381E-03    -.98686E-04     .20306E+00    -.24956E-01    -.10328E-01         .000      .000
    .230    -.65237E-03    -.11609E-03     .26336E+00     .43416E-02    -.11090E-01         .000      .000
    .240    -.76467E-03    -.13921E-03     .27696E+00     .38615E-01    -.11581E-01         .000      .000
    .250    -.88303E-03    -.16901E-03     .25027E+00     .55425E-01    -.11790E-01         .000      .000
    .260    -.99812E-03    -.20545E-03     .19679E+00     .46968E-01    -.11297E-01         .000      .000
    .270    -.11036E-02    -.24792E-03     .13956E+00     .22734E-01    -.91779E-02         .000      .000
    .280    -.11775E-02    -.29650E-03     .29115E-01     .14646E-01    -.57837E-02         .000      .000
    .290    -.12181E-02    -.35136E-03    -.20609E+00     .45627E-01    -.20521E-02         .000      .000
    .300    -.12185E-02    -.41067E-03    -.64244E+00     .10362E+00     .16491E-02         .000      .000
    .310    -.11902E-02    -.46762E-03    -.11449E+01     .12525E+00     .38232E-02         .000      .000
    .320    -.11498E-02    -.51386E-03    -.15745E+01     .90001E-01     .36917E-02         .000      .000
    .330    -.11193E-02    -.54145E-03    -.18383E+01     .13526E-01     .26796E-02         .000      .000
    .340    -.10916E-02    -.54444E-03    -.18452E+01    -.69598E-01     .30553E-02         .000      .000
    .350    -.10416E-02    -.52294E-03    -.15943E+01    -.10056E+00     .84277E-02         .000      .000
    .360    -.90128E-03    -.48495E-03    -.13174E+01    -.22662E-01     .20326E-01         .000      .000
    .370    -.63371E-03    -.44167E-03    -.12933E+01     .15953E+00     .32640E-01         .000      .000
    .380    -.27670E-03    -.40009E-03    -.18321E+01     .37658E+00     .36456E-01         .000      .000
    .390     .57821E-04    -.34853E-03    -.27366E+01     .41590E+00     .28920E-01         .000      .000
    .400     .27800E-03    -.25653E-03    -.30449E+01     .72560E-01     .14252E-01         .000      .000
    .410     .34065E-03    -.10174E-03    -.19056E+01    -.51823E+00    -.95168E-03         .000      .000
    .420     .26027E-03     .10275E-03     .30633E+00    -.86339E+00    -.15587E-01         .000      .000
    .430     .34195E-04     .31491E-03     .23980E+01    -.60685E+00    -.28596E-01         .000      .000
    .440    -.29812E-03     .49424E-03     .36508E+01     .41873E-01    -.37727E-01         .000      .000
    .450    -.72100E-03     .61942E-03     .45493E+01     .50744E+00    -.47227E-01         .000      .000
    .460    -.12546E-02     .67501E-03     .54965E+01     .50733E+00    -.60318E-01         .000      .000
    .470    -.19305E-02     .64918E-03     .64157E+01     .12920E+00    -.74295E-01         .000      .000
    .480    -.27343E-02     .53749E-03     .72810E+01    -.35480E+00    -.86304E-01         .000      .000
    .490    -.36407E-02     .33301E-03     .78782E+01    -.58470E+00    -.93418E-01         .000      .000
    .500    -.45629E-02     .23006E-04     .76208E+01    -.35866E+00    -.88608E-01         .000      .000
    .510    -.53719E-02    -.39896E-03     .63211E+01     .15752E+00    -.71617E-01         .000      .000
    .520    -.59848E-02    -.93166E-03     .39211E+01     .70204E+00    -.51571E-01         .000      .000
    .530    -.64178E-02    -.15575E-02     .22085E+00     .10468E+01    -.35967E-01         .000      .000
    .540    -.67309E-02    -.22228E-02    -.41974E+01     .92746E+00    -.28486E-01         .000      .000
    .550    -.70062E-02    -.28479E-02    -.79917E+01     .30862E+00    -.26504E-01         .000      .000
    .560    -.72447E-02    -.33647E-02    -.10434E+02    -.40510E+00    -.19463E-01         .000      .000
    .570    -.73597E-02    -.37386E-02    -.11686E+02    -.67768E+00    -.15537E-02         .000      .000
    .580    -.72564E-02    -.39715E-02    -.12662E+02    -.19528E+00     .22195E-01         .000      .000
    .590    -.69174E-02    -.40776E-02    -.14290E+02     .79453E+00     .45268E-01         .000      .000
    .600    -.63982E-02    -.40468E-02    -.16165E+02     .14938E+01     .53910E-01         .000      .000
    .610    -.59424E-02    -.38442E-02    -.16777E+02     .12742E+01     .31535E-01         .000      .000
    .620    -.58750E-02    -.34371E-02    -.15111E+02     .21662E+00    -.22933E-01         .000      .000
    .630    -.64776E-02    -.28101E-02    -.10370E+02    -.11653E+01    -.10011E+00         .000      .000
    .640    -.78968E-02    -.19989E-02    -.23829E+01    -.21119E+01    -.18287E+00         .000      .000
    .650    -.10058E-01    -.11161E-02     .75566E+01    -.20014E+01    -.24255E+00         .000      .000
    .660    -.12609E-01    -.33311E-03     .17544E+02    -.85524E+00    -.26069E+00         .000      .000
    .670    -.15043E-01     .15118E-03     .25508E+02     .80941E+00    -.21032E+00         .000      .000
    .680    -.16560E-01     .15764E-03     .29269E+02     .22862E+01    -.83633E-01         .000      .000
    .690    -.16661E-01    -.42631E-03     .27258E+02     .31640E+01     .59351E-01         .000      .000
    .700    -.15506E-01    -.16104E-02     .17048E+02     .36007E+01     .16235E+00         .000      .000
    .710    -.13556E-01    -.31969E-02     .13899E-01     .29179E+01     .22241E+00         .000      .000
    .720    -.11181E-01    -.48044E-02    -.16057E+02     .30395E+00     .24567E+00         .000      .000
    .730    -.88103E-02    -.61066E-02    -.26091E+02    -.27296E+01     .21969E+00         .000      .000
    .740    -.69040E-02    -.69570E-02    -.32672E+02    -.35530E+01     .15933E+00         .000      .000
    .750    -.55762E-02    -.72787E-02    -.37803E+02    -.19324E+01     .11271E+00         .000      .000
    .760    -.44336E-02    -.70170E-02    -.38695E+02     .20447E+00     .13018E+00         .000      .000
    .770    -.27393E-02    -.62319E-02    -.34206E+02     .16402E+01     .21748E+00         .000      .000
    .780    -.23536E-04    -.51095E-02    -.28505E+02     .26642E+01     .32314E+00         .000      .000
    .790     .35987E-02    -.38134E-02    -.26780E+02     .34722E+01     .39124E+00         .000      .000
    .800     .76103E-02    -.23207E-02    -.28001E+02     .28835E+01     .40157E+00         .000      .000
    .810     .11471E-01    -.46256E-03    -.25150E+02    -.96723E-01     .36414E+00         .000      .000
    .820     .14776E-01     .18551E-02    -.13803E+02    -.40202E+01     .29263E+00         .000      .000
    .830     .17261E-01     .45122E-02     .28452E+01    -.58371E+01     .20349E+00         .000      .000
    .840     .18811E-01     .72495E-02     .18786E+02    -.41446E+01     .10373E+00         .000      .000
    .850     .19312E-01     .98110E-02     .31679E+02    -.59907E+00    -.42717E-02         .000      .000
    .860     .18710E-01     .12002E-01     .43095E+02     .18101E+01    -.11787E+00         .000      .000
    .870     .16910E-01     .13672E-01     .55393E+02     .13674E+01    -.24481E+00         .000      .000
    .880     .13774E-01     .14666E-01     .67997E+02    -.10614E+01    -.38310E+00         .000      .000
    .890     .92999E-02     .14840E-01     .78079E+02    -.33711E+01    -.50514E+00         .000      .000
    .900     .38757E-02     .14089E-01     .83724E+02    -.40718E+01    -.56547E+00         .000      .000
    .910    -.16227E-02     .12325E-01     .83699E+02    -.27226E+01    -.50992E+00         .000      .000
    .920    -.58360E-02     .94587E-02     .75541E+02     .32621E+00    -.30879E+00         .000      .000
    .930    -.74763E-02     .54501E-02     .55684E+02     .41927E+01    -.11443E-01         .000      .000
    .940    -.62094E-02     .43046E-03     .20968E+02     .76215E+01     .24209E+00         .000      .000
    .950    -.31702E-02    -.51339E-02    -.26633E+02     .85881E+01     .33430E+00         .000      .000
    .960    -.50627E-04    -.10381E-01    -.74877E+02     .47160E+01     .26788E+00         .000      .000
    .970     .20289E-02    -.14320E-01    -.10552E+03    -.37555E+01     .15486E+00         .000      .000
    .980     .32625E-02    -.16355E-01    -.11079E+03    -.11405E+02     .10904E+00         .000      .000
    .990     .46006E-02    -.16547E-01    -.10120E+03    -.11148E+02     .18228E+00         .000      .000
   1.000     .72421E-02    -.15361E-01    -.94167E+02    -.15084E+01     .35455E+00         .000      .000
   1.010     .11676E-01    -.13178E-01    -.95513E+02     .10597E+02     .51890E+00         .000      .000
   1.020     .17272E-01    -.10080E-01    -.97328E+02     .15792E+02     .57628E+00         .000      .000
   1.030     .22731E-01    -.59146E-02    -.86920E+02     .96476E+01     .49234E+00         .000      .000
   1.040     .26639E-01    -.55582E-03    -.56210E+02    -.39350E+01     .26717E+00         .000      .000
   1.050     .27637E-01     .58143E-02    -.91961E+01    -.15361E+02    -.85637E-01         .000      .000
   1.060     .24798E-01     .12673E-01     .42431E+02    -.17309E+02    -.47555E+00         .000      .000
   1.070     .18508E-01     .19332E-01     .92393E+02    -.10616E+02    -.75247E+00         .000      .000
   1.080     .10343E-01     .24982E-01     .14083E+03    -.12676E+01    -.85325E+00         .000      .000
   1.090     .18728E-02     .28647E-01     .18091E+03     .64013E+01    -.82610E+00         .000      .000
   1.100    -.60064E-02     .29466E-01     .19911E+03     .10471E+02    -.74786E+00         .000      .000
   1.110    -.13076E-01     .27152E-01     .19160E+03     .91470E+01    -.66774E+00         .000      .000
   1.120    -.19390E-01     .22038E-01     .16689E+03     .24946E+01    -.59574E+00         .000      .000
   1.130    -.25029E-01     .14743E-01     .13317E+03    -.53849E+01    -.53300E+00         .000      .000
   1.140    -.30130E-01     .58754E-02     .90493E+02    -.86238E+01    -.49230E+00         .000      .000
   1.150    -.34935E-01    -.39887E-02     .35656E+02    -.47493E+01    -.46989E+00         .000      .000
   1.160    -.39444E-01    -.14166E-01    -.27888E+02     .27491E+01    -.42447E+00         .000      .000
   1.170    -.43257E-01    -.23863E-01    -.88640E+02     .78578E+01    -.33066E+00         .000      .000
   1.180    -.45931E-01    -.32367E-01    -.13759E+03     .79883E+01    -.19886E+00         .000      .000
   1.190    -.47152E-01    -.39149E-01    -.17474E+03     .51487E+01    -.41466E-01         .000      .000
   1.200    -.46612E-01    -.43778E-01    -.20222E+03     .22933E+01     .16116E+00         .000      .000
   1.210    -.43703E-01    -.45884E-01    -.21847E+03     .90507E+00     .43195E+00         .000      .000
   1.220    -.37807E-01    -.45281E-01    -.22162E+03     .14593E+01     .75254E+00         .000      .000
   1.230    -.28556E-01    -.42036E-01    -.21431E+03     .38495E+01     .11016E+01         .000      .000
   1.240    -.15825E-01    -.36355E-01    -.19963E+03     .64309E+01     .14346E+01         .000      .000
   1.250    -.22719E-03    -.28466E-01    -.17710E+03     .69357E+01     .16580E+01         .000      .000
   1.260     .16736E-01    -.18600E-01    -.14567E+03     .44242E+01     .17018E+01         .000      .000
   1.270     .33316E-01    -.69805E-02    -.10264E+03    -.94425E+00     .15984E+01         .000      .000
   1.280     .48519E-01     .60879E-02    -.43258E+02    -.77269E+01     .14406E+01         .000      .000
   1.290     .62148E-01     .19967E-01     .30593E+02    -.12192E+02     .12901E+01         .000      .000
   1.300     .74436E-01     .33613E-01     .10494E+03    -.10542E+02     .11749E+01         .000      .000
   1.310     .85700E-01     .45897E-01     .16493E+03    -.36716E+01     .10746E+01         .000      .000
   1.320     .95660E-01     .55964E-01     .20636E+03     .28488E+01     .89179E+00         .000      .000
   1.330     .10321E+00     .63347E-01     .23285E+03     .37169E+01     .61109E+00         .000      .000
   1.340     .10784E+00     .67941E-01     .25168E+03    -.26712E+01     .31891E+00         .000      .000
   1.350     .10958E+00     .69773E-01     .26867E+03    -.12220E+02     .26427E-01         .000      .000
   1.360     .10830E+00     .68702E-01     .27446E+03    -.16387E+02    -.28414E+00         .000      .000
   1.370     .10398E+00     .64620E-01     .25513E+03    -.11494E+02    -.57250E+00         .000      .000
   1.380     .97106E-01     .57817E-01     .21482E+03    -.30504E+01    -.78746E+00         .000      .000
   1.390     .88500E-01     .48834E-01     .16748E+03     .21274E+01    -.92185E+00         .000      .000
   1.400     .78928E-01     .38187E-01     .11773E+03     .26252E+01    -.97833E+00         .000      .000
   1.410     .69196E-01     .26407E-01     .62767E+02     .74947E+00    -.95524E+00         .000      .000
   1.420     .59958E-01     .14182E-01     .24603E+01    -.97879E+00    -.89099E+00         .000      .000
   1.430     .51394E-01     .23173E-02    -.59950E+02    -.10895E+01    -.82119E+00         .000      .000
   1.440     .43593E-01    -.83416E-02    -.11852E+03     .44829E-02    -.73431E+00         .000      .000
   1.450     .36815E-01    -.17015E-01    -.16439E+03     .81172E+00    -.61574E+00         .000      .000
   1.460     .31397E-01    -.23187E-01    -.19301E+03     .12644E+01    -.46121E+00         .000      .000
   1.470     .27717E-01    -.26650E-01    -.20697E+03     .22886E+01    -.26873E+00         .000      .000
   1.480     .26065E-01    -.27375E-01    -.20898E+03     .36849E+01    -.63805E-01         .000      .000
   1.490     .26281E-01    -.25428E-01    -.19897E+03     .43612E+01     .92893E-01         .000      .000
   1.500     .27654E-01    -.20972E-01    -.17627E+03     .34620E+01     .16882E+00         .000      .000
   1.510     .29476E-01    -.14260E-01    -.13923E+03     .62964E+00     .19056E+00         .000      .000
   1.520     .31346E-01    -.57103E-02    -.86585E+02    -.31893E+01     .17718E+00         .000      .000
   1.530     .32868E-01     .39759E-02    -.23725E+02    -.53066E+01     .11918E+00         .000      .000
   1.540     .33529E-01     .13898E-01     .38567E+02    -.40217E+01     .11716E-02         .000      .000
   1.550     .32657E-01     .23209E-01     .94381E+02    -.11544E+01    -.18811E+00         .000      .000
   1.560     .29560E-01     .31223E-01     .14473E+03    -.36188E-01    -.44036E+00         .000      .000
   1.570     .23760E-01     .37356E-01     .19124E+03    -.20323E+01    -.71924E+00         .000      .000
   1.580     .15258E-01     .41054E-01     .23135E+03    -.54149E+01    -.97220E+00         .000      .000
   1.590     .44792E-02     .41795E-01     .25821E+03    -.69881E+01    -.11754E+01         .000      .000
   1.600    -.80531E-02     .39184E-01     .26388E+03    -.48265E+01    -.13196E+01         .000      .000
   1.610    -.21489E-01     .33098E-01     .24480E+03    -.23019E+00    -.13378E+01         .000      .000
   1.620    -.34209E-01     .23773E-01     .20528E+03     .34455E+01    -.11772E+01         .000      .000
   1.630    -.44648E-01     .11659E-01     .14960E+03     .50812E+01    -.90096E+00         .000      .000
   1.640    -.52109E-01    -.26483E-02     .73912E+02     .65496E+01    -.58850E+00         .000      .000
   1.650    -.56418E-01    -.18174E-01    -.21598E+02     .78798E+01    -.27663E+00         .000      .000
   1.660    -.57741E-01    -.33494E-01    -.12211E+03     .67888E+01     .50109E-02         .000      .000
   1.670    -.56515E-01    -.47111E-01    -.21148E+03     .33784E+01     .22838E+00         .000      .000
   1.680    -.53454E-01    -.57783E-01    -.28258E+03     .47513E+00     .36873E+00         .000      .000
   1.690    -.49381E-01    -.64584E-01    -.33271E+03     .12710E+00     .43699E+00         .000      .000
   1.700    -.44774E-01    -.66888E-01    -.35743E+03     .16133E+01     .48660E+00         .000      .000
   1.710    -.39508E-01    -.64442E-01    -.35116E+03     .28661E+01     .57783E+00         .000      .000
   1.720    -.32932E-01    -.57489E-01    -.31387E+03     .31910E+01     .75469E+00         .000      .000
   1.730    -.24218E-01    -.46752E-01    -.25397E+03     .35430E+01     .99091E+00         .000      .000
   1.740    -.13148E-01    -.33236E-01    -.18344E+03     .46398E+01     .12169E+01         .000      .000
   1.750     .50280E-04    -.17946E-01    -.11054E+03     .52474E+01     .14212E+01         .000      .000
   1.760     .15146E-01    -.17388E-02    -.34672E+02     .29543E+01     .15860E+01         .000      .000
   1.770     .31362E-01     .14540E-01     .44768E+02    -.17492E+01     .16295E+01         .000      .000
   1.780     .47234E-01     .29952E-01     .11875E+03    -.54136E+01     .15238E+01         .000      .000
   1.790     .61463E-01     .43701E-01     .18021E+03    -.69341E+01     .13054E+01         .000      .000
   1.800     .72995E-01     .55220E-01     .23208E+03    -.78226E+01     .98241E+00         .000      .000
   1.810     .80865E-01     .63988E-01     .27483E+03    -.82974E+01     .58581E+00         .000      .000
   1.820     .84704E-01     .69521E-01     .30403E+03    -.80228E+01     .18709E+00         .000      .000
   1.830     .84747E-01     .71499E-01     .31810E+03    -.73905E+01    -.16979E+00         .000      .000
