


 TIME HISTORY FOR STORY NO.  3



    TIME   DISPLACEMENT    STORY DRIFT    STORY SHEAR   ACCELERATION     VELOCITY          DAMAGE    DAMAGE
                                                                                          BEAM-SLAB  COL-WALL

    .000     .00000E+00     .00000E+00     .00000E+00     .00000E+00     .00000E+00         .000      .000
    .010    -.83386E-06     .16851E-07     .63309E-02    -.13898E-02    -.13115E-04         .000      .000
    .020    -.23860E-06    -.24708E-06    -.48021E-02     .31779E-02    -.28562E-04         .000      .000
    .030    -.13521E-05    -.25889E-06    -.17207E-02    -.18734E-02    -.33162E-04         .000      .000
    .040    -.10489E-05    -.39681E-06     .82345E-03     .15239E-02    -.74156E-04         .000      .000
    .050    -.28554E-05    -.57454E-06     .13340E-02    -.13372E-02    -.12923E-03         .000      .000
    .060    -.38271E-05    -.10030E-05     .21351E-02     .24921E-02    -.23470E-03         .000      .000
    .070    -.75022E-05    -.16255E-05     .48919E-02     .86773E-04    -.33321E-03         .000      .000
    .080    -.10578E-04    -.28383E-05     .80269E-04     .55281E-02    -.45035E-03         .000      .000
    .090    -.16433E-04    -.45031E-05    -.95411E-02     .40883E-02    -.55241E-03         .000      .000
    .100    -.21738E-04    -.68023E-05    -.23952E-01     .94845E-02    -.68035E-03         .000      .000
    .110    -.29969E-04    -.95230E-05    -.38505E-01     .80017E-02    -.79460E-03         .000      .000
    .120    -.37734E-04    -.12881E-04    -.56574E-01     .14173E-01    -.93231E-03         .000      .000
    .130    -.48500E-04    -.16667E-04    -.73191E-01     .13377E-01    -.10432E-02         .000      .000
    .140    -.58588E-04    -.21125E-04    -.92264E-01     .20056E-01    -.11431E-02         .000      .000
    .150    -.70278E-04    -.26084E-04    -.11575E+00     .20381E-01    -.92534E-03         .000      .000
    .160    -.76675E-04    -.31548E-04    -.17119E+00     .30036E-01    -.57626E-03         .000      .000
    .170    -.83377E-04    -.35861E-04    -.19931E+00     .17457E-01    -.71221E-03         .000      .000
    .180    -.93124E-04    -.38865E-04    -.12597E+00     .29455E-02    -.14916E-02         .000      .000
    .190    -.11416E-03    -.43208E-04    -.27248E-01     .72971E-03    -.25573E-02         .000      .000
    .200    -.14408E-03    -.52132E-04    -.82299E-02     .26105E-01    -.35652E-02         .000      .000
    .210    -.18386E-03    -.66321E-04    -.73843E-01     .45488E-01    -.41056E-02         .000      .000
    .220    -.22436E-03    -.85448E-04    -.22044E+00     .65511E-01    -.40888E-02         .000      .000
    .230    -.26482E-03    -.10733E-03    -.42220E+00     .67555E-01    -.38364E-02         .000      .000
    .240    -.30134E-03    -.12906E-03    -.59547E+00     .65793E-01    -.36478E-02         .000      .000
    .250    -.33785E-03    -.14846E-03    -.68739E+00     .59267E-01    -.34868E-02         .000      .000
    .260    -.36965E-03    -.16538E-03    -.71366E+00     .68124E-01    -.28930E-02         .000      .000
    .270    -.39128E-03    -.17999E-03    -.73819E+00     .77676E-01    -.97867E-03         .000      .000
    .280    -.38567E-03    -.19129E-03    -.82572E+00     .83086E-01     .19982E-02         .000      .000
    .290    -.35136E-03    -.19440E-03    -.85396E+00     .33031E-01     .49448E-02         .000      .000
    .300    -.29031E-03    -.18592E-03    -.68349E+00    -.44824E-01     .68552E-02         .000      .000
    .310    -.22130E-03    -.16649E-03    -.32429E+00    -.12503E+00     .66566E-02         .000      .000
    .320    -.16453E-03    -.14062E-03     .20786E+00    -.17903E+00     .42680E-02         .000      .000
    .330    -.13775E-03    -.11715E-03     .75830E+00    -.19046E+00     .13402E-02         .000      .000
    .340    -.13207E-03    -.10626E-03     .98401E+00    -.13691E+00     .10474E-03         .000      .000
    .350    -.12086E-03    -.10978E-03     .67562E+00    -.69579E-01     .32791E-02         .000      .000
    .360    -.50350E-04    -.11701E-03    -.16225E+00    -.21823E-01     .11276E-01         .000      .000
    .370     .10262E-03    -.10267E-03    -.10209E+01    -.10140E+00     .18618E-01         .000      .000
    .380     .29274E-03    -.41542E-04    -.82838E+00    -.34420E+00     .17217E-01         .000      .000
    .390     .40927E-03     .60828E-04     .90908E+00    -.58039E+00     .46193E-02         .000      .000
    .400     .36874E-03     .15668E-03     .31590E+01    -.51403E+00    -.12811E-01         .000      .000
    .410     .17130E-03     .18892E-03     .41918E+01    -.11845E+00    -.24832E-01         .000      .000
    .420    -.99585E-04     .13367E-03     .31248E+01     .33612E+00    -.28495E-01         .000      .000
    .430    -.38269E-03     .13903E-04     .74755E+00     .50088E+00    -.27458E-01         .000      .000
    .440    -.65005E-03    -.13218E-03    -.18191E+01     .46684E+00    -.26714E-01         .000      .000
    .450    -.93261E-03    -.27199E-03    -.38957E+01     .44640E+00    -.30607E-01         .000      .000
    .460    -.12744E-02    -.38620E-03    -.47818E+01     .55064E+00    -.38122E-01         .000      .000
    .470    -.16864E-02    -.48306E-03    -.45444E+01     .80358E+00    -.43054E-01         .000      .000
    .480    -.21104E-02    -.59175E-03    -.42285E+01     .11404E+01    -.40539E-01         .000      .000
    .490    -.24680E-02    -.73100E-03    -.46110E+01     .13341E+01    -.29350E-01         .000      .000
    .500    -.26682E-02    -.89530E-03    -.58224E+01     .13059E+01    -.93961E-02         .000      .000
    .510    -.26418E-02    -.10528E-02    -.76309E+01     .10786E+01     .14787E-01         .000      .000
    .520    -.23894E-02    -.11473E-02    -.87272E+01     .60939E+00     .33894E-01         .000      .000
    .530    -.20036E-02    -.11340E-02    -.74175E+01    -.42248E-01     .41166E-01         .000      .000
    .540    -.16082E-02    -.10246E-02    -.36130E+01    -.58408E+00     .35922E-01         .000      .000
    .550    -.13024E-02    -.88113E-03     .11427E+01    -.84123E+00     .25533E-01         .000      .000
    .560    -.10738E-02    -.77834E-03     .46422E+01    -.80620E+00     .22227E-01         .000      .000
    .570    -.81837E-03    -.75242E-03     .52496E+01    -.72341E+00     .30629E-01         .000      .000
    .580    -.45178E-03    -.76949E-03     .35894E+01    -.95563E+00     .41763E-01         .000      .000
    .590    -.16928E-04    -.75650E-03     .20760E+01    -.15564E+01     .42849E-01         .000      .000
    .600     .33178E-03    -.66875E-03     .24019E+01    -.20939E+01     .22102E-01         .000      .000
    .610     .33767E-03    -.52054E-03     .51724E+01    -.22639E+01    -.24780E-01         .000      .000
    .620    -.21685E-03    -.40107E-03     .94467E+01    -.18300E+01    -.87473E-01         .000      .000
    .630    -.14078E-02    -.45339E-03     .12014E+02    -.72633E+00    -.14901E+00         .000      .000
    .640    -.31374E-02    -.79453E-03     .97512E+01     .75759E+00    -.19279E+00         .000      .000
    .650    -.51515E-02    -.14482E-02     .14653E+01     .22544E+01    -.20306E+00         .000      .000
    .660    -.70733E-02    -.23205E-02    -.12028E+02     .35373E+01    -.17589E+00         .000      .000
    .670    -.85150E-02    -.32049E-02    -.26973E+02     .42813E+01    -.10254E+00         .000      .000
    .680    -.89724E-02    -.38580E-02    -.39927E+02     .46308E+01     .16287E-01         .000      .000
    .690    -.81808E-02    -.40239E-02    -.46376E+02     .39227E+01     .13727E+00         .000      .000
    .700    -.63824E-02    -.35319E-02    -.39164E+02     .16208E+01     .21183E+00         .000      .000
    .710    -.41282E-02    -.25043E-02    -.18654E+02    -.92417E+00     .23196E+00         .000      .000
    .720    -.18533E-02    -.13184E-02     .46211E+01    -.21234E+01     .21931E+00         .000      .000
    .730     .19601E-03    -.31669E-03     .21605E+02    -.24746E+01     .18760E+00         .000      .000
    .740     .18531E-02     .34046E-03     .30896E+02    -.32072E+01     .14201E+00         .000      .000
    .750     .30243E-02     .60618E-03     .32523E+02    -.41273E+01     .93163E-01         .000      .000
    .760     .37921E-02     .53186E-03     .25635E+02    -.43155E+01     .67251E-01         .000      .000
    .770     .44949E-02     .32407E-03     .12181E+02    -.36574E+01     .78724E-01         .000      .000
    .780     .54024E-02     .32319E-03     .16159E+00    -.33925E+01     .10042E+00         .000      .000
    .790     .63877E-02     .79186E-03    -.69695E+00    -.42293E+01     .87593E-01         .000      .000
    .800     .69867E-02     .16717E-02     .10863E+02    -.49550E+01     .25232E-01         .000      .000
    .810     .68270E-02     .26020E-02     .25586E+02    -.39195E+01    -.56378E-01         .000      .000
    .820     .59322E-02     .31946E-02     .32428E+02    -.12394E+01    -.11655E+00         .000      .000
    .830     .46212E-02     .32796E-02     .27403E+02     .13634E+01    -.13983E+00         .000      .000
    .840     .31802E-02     .29288E-02     .13581E+02     .26771E+01    -.14990E+00         .000      .000
    .850     .15636E-02     .23413E-02    -.24564E+01     .29282E+01    -.17749E+00         .000      .000
    .860    -.44511E-03     .16895E-02    -.15487E+02     .35274E+01    -.22720E+00         .000      .000
    .870    -.29937E-02     .10460E-02    -.23722E+02     .52644E+01    -.28092E+00         .000      .000
    .880    -.59812E-02     .38731E-03    -.27398E+02     .76411E+01    -.31029E+00         .000      .000
    .890    -.90282E-02    -.38596E-03    -.29461E+02     .98022E+01    -.28860E+00         .000      .000
    .900    -.11520E-01    -.13634E-02    -.34816E+02     .11203E+02    -.19709E+00         .000      .000
    .910    -.12690E-01    -.24829E-02    -.46206E+02     .11459E+02    -.21911E-01         .000      .000
    .920    -.11699E-01    -.34469E-02    -.61340E+02     .10216E+02     .23078E+00         .000      .000
    .930    -.80152E-02    -.37541E-02    -.71272E+02     .67018E+01     .50099E+00         .000      .000
    .940    -.20252E-02    -.29124E-02    -.61633E+02     .33872E+00     .66743E+00         .000      .000
    .950     .46703E-02    -.82781E-03    -.21626E+02    -.76617E+01     .63615E+00         .000      .000
    .960     .10128E-01     .18814E-02     .40041E+02    -.13331E+02     .43570E+00         .000      .000
    .970     .13319E-01     .41262E-02     .94700E+02    -.13697E+02     .21586E+00         .000      .000
    .980     .14857E-01     .50656E-02     .11426E+03    -.10122E+02     .11802E+00         .000      .000
    .990     .16156E-01     .47094E-02     .94371E+02    -.77704E+01     .16134E+00         .000      .000
   1.000     .18198E-01     .38354E-02     .55039E+02    -.97033E+01     .23856E+00         .000      .000
   1.010     .20525E-01     .34109E-02     .23947E+02    -.14436E+02     .19645E+00         .000      .000
   1.020     .21531E-01     .39677E-02     .20825E+02    -.17550E+02    -.22483E-01         .000      .000
   1.030     .19752E-01     .52382E-02     .43209E+02    -.15021E+02    -.33761E+00         .000      .000
   1.040     .14885E-01     .63587E-02     .69617E+02    -.70133E+01    -.62176E+00         .000      .000
   1.050     .76369E-02     .64364E-02     .78189E+02     .22484E+01    -.81159E+00         .000      .000
   1.060    -.99749E-03     .49660E-02     .58531E+02     .91794E+01    -.89731E+00         .000      .000
   1.070    -.99264E-02     .19519E-02     .82563E+01     .14285E+02    -.86761E+00         .000      .000
   1.080    -.17985E-01    -.19946E-02    -.65086E+02     .18929E+02    -.72868E+00         .000      .000
   1.090    -.24274E-01    -.57308E-02    -.13573E+03     .21966E+02    -.52266E+00         .000      .000
   1.100    -.28402E-01    -.81714E-02    -.17328E+03     .22285E+02    -.30586E+00         .000      .000
   1.110    -.30445E-01    -.89407E-02    -.16658E+03     .20885E+02    -.10473E+00         .000      .000
   1.120    -.30474E-01    -.84678E-02    -.12929E+03     .19463E+02     .10366E+00         .000      .000
   1.130    -.28266E-01    -.75203E-02    -.85568E+02     .17783E+02     .34342E+00         .000      .000
   1.140    -.23611E-01    -.66457E-02    -.50911E+02     .13547E+02     .58087E+00         .000      .000
   1.150    -.16904E-01    -.59726E-02    -.25653E+02     .54344E+01     .74168E+00         .000      .000
   1.160    -.91771E-02    -.53953E-02    -.41557E+01    -.44058E+01     .78386E+00         .000      .000
   1.170    -.15787E-02    -.47738E-02     .16347E+02    -.12447E+02     .72169E+00         .000      .000
   1.180     .50661E-02    -.39760E-02     .38105E+02    -.17496E+02     .60226E+00         .000      .000
   1.190     .10430E-01    -.29503E-02     .63001E+02    -.20500E+02     .47153E+00         .000      .000
   1.200     .14585E-01    -.18139E-02     .87574E+02    -.22423E+02     .36696E+00         .000      .000
   1.210     .17923E-01    -.77723E-03     .10261E+03    -.23278E+02     .30844E+00         .000      .000
   1.220     .20860E-01     .10326E-03     .10255E+03    -.23443E+02     .28163E+00         .000      .000
   1.230     .23581E-01     .10310E-02     .92389E+02    -.23526E+02     .26244E+00         .000      .000
   1.240     .26016E-01     .22921E-02     .80561E+02    -.23107E+02     .21578E+00         .000      .000
   1.250     .27643E-01     .40709E-02     .74829E+02    -.21807E+02     .93179E-01         .000      .000
   1.260     .27565E-01     .62771E-02     .79981E+02    -.19079E+02    -.12336E+00         .000      .000
   1.270     .25069E-01     .84221E-02     .89502E+02    -.13544E+02    -.37138E+00         .000      .000
   1.280     .20404E-01     .98212E-02     .85092E+02    -.44092E+01    -.53992E+00         .000      .000
   1.290     .14762E-01     .10113E-01     .53519E+02     .60044E+01    -.56269E+00         .000      .000
   1.300     .95817E-02     .95644E-02     .93518E+00     .13922E+02    -.45707E+00         .000      .000
   1.310     .57491E-02     .88465E-02    -.53918E+02     .17900E+02    -.31278E+00         .000      .000
   1.320     .30607E-02     .86147E-02    -.91032E+02     .19114E+02    -.24733E+00         .000      .000
   1.330     .51815E-03     .91091E-02    -.97545E+02     .20052E+02    -.26592E+00         .000      .000
   1.340    -.21464E-02     .99261E-02    -.83826E+02     .23995E+02    -.25050E+00         .000      .000
   1.350    -.41257E-02     .10462E-01    -.72551E+02     .29430E+02    -.12708E+00         .000      .000
   1.360    -.44288E-02     .10501E-01    -.69063E+02     .30759E+02     .72360E-01         .000      .000
   1.370    -.26993E-02     .10146E-01    -.66892E+02     .26221E+02     .26609E+00         .000      .000
   1.380     .68144E-03     .95503E-02    -.63599E+02     .19075E+02     .39785E+00         .000      .000
   1.390     .50423E-02     .89373E-02    -.57416E+02     .12589E+02     .46569E+00         .000      .000
   1.400     .99130E-02     .85874E-02    -.42339E+02     .72431E+01     .50864E+00         .000      .000
   1.410     .15241E-01     .86604E-02    -.15178E+02     .20506E+01     .55909E+00         .000      .000
   1.420     .21045E-01     .91080E-02     .20554E+02    -.40712E+01     .59435E+00         .000      .000
   1.430     .26936E-01     .97443E-02     .59907E+02    -.11362E+02     .57212E+00         .000      .000
   1.440     .32269E-01     .10291E-01     .95761E+02    -.18111E+02     .48511E+00         .000      .000
   1.450     .36494E-01     .10502E-01     .11948E+03    -.22614E+02     .35536E+00         .000      .000
   1.460     .39332E-01     .10346E-01     .12892E+03    -.25014E+02     .21203E+00         .000      .000
   1.470     .40748E-01     .99781E-02     .12834E+03    -.26100E+02     .72491E-01         .000      .000
   1.480     .40761E-01     .95903E-02     .12264E+03    -.26161E+02    -.73023E-01         .000      .000
   1.490     .39171E-01     .93047E-02     .11605E+03    -.25113E+02    -.25348E+00         .000      .000
   1.500     .35572E-01     .90815E-02     .11092E+03    -.22390E+02    -.46936E+00         .000      .000
   1.510     .29838E-01     .86699E-02     .10254E+03    -.16907E+02    -.66859E+00         .000      .000
   1.520     .22432E-01     .77826E-02     .81782E+02    -.88741E+01    -.79911E+00         .000      .000
   1.530     .14110E-01     .63673E-02     .47270E+02    -.64245E+00    -.85440E+00         .000      .000
   1.540     .54698E-02     .46050E-02     .67661E+01     .59517E+01    -.87214E+00         .000      .000
   1.550    -.33513E-02     .27050E-02    -.31007E+02     .11155E+02    -.89506E+00         .000      .000
   1.560    -.12452E-01     .74846E-03    -.61723E+02     .16469E+02    -.92351E+00         .000      .000
   1.570    -.21677E-01    -.13238E-02    -.86583E+02     .22753E+02    -.90867E+00         .000      .000
   1.580    -.30284E-01    -.35985E-02    -.10964E+03     .29107E+02    -.79232E+00         .000      .000
   1.590    -.37166E-01    -.60361E-02    -.13284E+03     .33285E+02    -.56979E+00         .000      .000
   1.600    -.41480E-01    -.84091E-02    -.15173E+03     .33339E+02    -.28773E+00         .000      .000
   1.610    -.42786E-01    -.10433E-01    -.16051E+03     .29851E+02     .35315E-01         .000      .000
   1.620    -.40618E-01    -.11869E-01    -.16021E+03     .25023E+02     .40553E+00         .000      .000
   1.630    -.34658E-01    -.12379E-01    -.14917E+03     .18403E+02     .78018E+00         .000      .000
   1.640    -.25244E-01    -.11576E-01    -.11579E+03     .81308E+01     .10858E+01         .000      .000
   1.650    -.13372E-01    -.94390E-02    -.56355E+02    -.44542E+01     .12639E+01         .000      .000
   1.660    -.45910E-03    -.64147E-02     .17140E+02    -.16378E+02     .12953E+01         .000      .000
   1.670     .12097E-01    -.31345E-02     .88626E+02    -.25974E+02     .11959E+01         .000      .000
   1.680     .23069E-01    -.14069E-03     .14698E+03    -.33391E+02     .97937E+00         .000      .000
   1.690     .31343E-01     .21979E-02     .18745E+03    -.38976E+02     .66075E+00         .000      .000
   1.700     .36082E-01     .36387E-02     .20646E+03    -.41598E+02     .28238E+00         .000      .000
   1.710     .37032E-01     .40953E-02     .20036E+03    -.39885E+02    -.83495E-01         .000      .000
   1.720     .34715E-01     .37425E-02     .17032E+03    -.34158E+02    -.35904E+00         .000      .000
   1.730     .30213E-01     .30150E-02     .12447E+03    -.26357E+02    -.52681E+00         .000      .000
   1.740     .24401E-01     .24537E-02     .77548E+02    -.18866E+02    -.62851E+00         .000      .000
   1.750     .17812E-01     .23800E-02     .40539E+02    -.11523E+02    -.67898E+00         .000      .000
   1.760     .11018E-01     .27477E-02     .10146E+02    -.25588E+01    -.67027E+00         .000      .000
   1.770     .45386E-02     .34151E-02    -.17996E+02     .69645E+01    -.62296E+00         .000      .000
   1.780    -.13810E-02     .42802E-02    -.39832E+02     .14689E+02    -.55812E+00         .000      .000
   1.790    -.65915E-02     .51152E-02    -.56340E+02     .20860E+02    -.48321E+00         .000      .000
   1.800    -.11062E-01     .56515E-02    -.73782E+02     .26159E+02    -.41336E+00         .000      .000
   1.810    -.14849E-01     .57840E-02    -.91699E+02     .30200E+02    -.34073E+00         .000      .000
   1.820    -.17764E-01     .55181E-02    -.10804E+03     .33130E+02    -.23434E+00         .000      .000
   1.830    -.19376E-01     .49468E-02    -.12252E+03     .34643E+02    -.80220E-01         .000      .000
