


 TIME HISTORY FOR STORY NO.  6



    TIME   DISPLACEMENT    STORY DRIFT    STORY SHEAR   ACCELERATION     VELOCITY          DAMAGE    DAMAGE
                                                                                          BEAM-SLAB  COL-WALL

    .000     .00000E+00     .00000E+00     .00000E+00     .00000E+00     .00000E+00         .000      .000
    .010    -.10084E-05    -.32518E-09    -.17668E-05     .85150E-04    -.19231E-03         .000      .000
    .020    -.39019E-05    -.56073E-08    -.86148E-03     .46919E-03    -.40668E-03         .000      .000
    .030    -.91640E-05     .53818E-07    -.47636E-02     .14166E-02    -.62789E-03         .000      .000
    .040    -.16470E-04     .47303E-06    -.52032E-02     .10349E-02    -.85305E-03         .000      .000
    .050    -.26219E-04     .14596E-05     .10184E-01    -.28703E-02    -.10769E-02         .000      .000
    .060    -.37947E-04     .26126E-05     .41586E-01    -.93256E-02    -.12815E-02         .000      .000
    .070    -.51887E-04     .30189E-05     .75363E-01    -.15444E-01    -.14967E-02         .000      .000
    .080    -.68027E-04     .17822E-05     .10062E+00    -.19478E-01    -.17550E-02         .000      .000
    .090    -.87235E-04    -.17311E-05     .11038E+00    -.20183E-01    -.20874E-02         .000      .000
    .100    -.11031E-03    -.77464E-05     .99466E-01    -.16695E-01    -.25801E-02         .000      .000
    .110    -.13921E-03    -.15903E-04     .68545E-01    -.96679E-02    -.31849E-02         .000      .000
    .120    -.17367E-03    -.25253E-04     .27738E-01    -.15731E-02    -.36889E-02         .000      .000
    .130    -.21220E-03    -.34540E-04    -.44432E-02     .34535E-02    -.39597E-02         .000      .000
    .140    -.25247E-03    -.42831E-04    -.33194E-02     .93754E-03    -.41131E-02         .000      .000
    .150    -.29418E-03    -.50480E-04     .36924E-01    -.83872E-02    -.41787E-02         .000      .000
    .160    -.33554E-03    -.59276E-04     .85254E-01    -.16816E-01    -.40893E-02         .000      .000
    .170    -.37584E-03    -.71094E-04     .99861E-01    -.17191E-01    -.39618E-02         .000      .000
    .180    -.41458E-03    -.86532E-04     .68649E-01    -.89445E-02    -.37777E-02         .000      .000
    .190    -.45078E-03    -.10492E-03    -.35405E-02     .67081E-02    -.34089E-02         .000      .000
    .200    -.48106E-03    -.12455E-03    -.10708E+00     .27183E-01    -.25313E-02         .000      .000
    .210    -.49904E-03    -.14285E-03    -.21406E+00     .45912E-01    -.95021E-03         .000      .000
    .220    -.49879E-03    -.15742E-03    -.28590E+00     .56006E-01     .10110E-02         .000      .000
    .230    -.47949E-03    -.16746E-03    -.31238E+00     .58518E-01     .27745E-02         .000      .000
    .240    -.44634E-03    -.17396E-03    -.33929E+00     .65265E-01     .36317E-02         .000      .000
    .250    -.40856E-03    -.17751E-03    -.43025E+00     .86979E-01     .39796E-02         .000      .000
    .260    -.36686E-03    -.17552E-03    -.58931E+00     .11924E+00     .42889E-02         .000      .000
    .270    -.32412E-03    -.16211E-03    -.71767E+00     .13785E+00     .41865E-02         .000      .000
    .280    -.28400E-03    -.13224E-03    -.67672E+00     .11879E+00     .38199E-02         .000      .000
    .290    -.24893E-03    -.86659E-04    -.44270E+00     .65696E-01     .30978E-02         .000      .000
    .300    -.22297E-03    -.31358E-04    -.89102E-01    -.57454E-02     .21006E-02         .000      .000
    .310    -.20653E-03     .25440E-04     .31904E+00    -.84427E-01     .12223E-02         .000      .000
    .320    -.19999E-03     .74525E-04     .71814E+00    -.15724E+00    -.87800E-04         .000      .000
    .330    -.21333E-03     .10682E-03     .10294E+01    -.20793E+00    -.29036E-02         .000      .000
    .340    -.26233E-03     .11523E-03     .11578E+01    -.21773E+00    -.69916E-02         .000      .000
    .350    -.35412E-03     .98041E-04     .10309E+01    -.17778E+00    -.11368E-01         .000      .000
    .360    -.49152E-03     .61856E-04     .73117E+00    -.11510E+00    -.16310E-01         .000      .000
    .370    -.67904E-03     .17898E-04     .49589E+00    -.78058E-01    -.20881E-01         .000      .000
    .380    -.90115E-03    -.27204E-04     .46843E+00    -.83657E-01    -.23053E-01         .000      .000
    .390    -.11308E-02    -.74522E-04     .62231E+00    -.12241E+00    -.22430E-01         .000      .000
    .400    -.13427E-02    -.13075E-03     .91657E+00    -.18568E+00    -.19697E-01         .000      .000
    .410    -.15219E-02    -.20884E-03     .11997E+01    -.23230E+00    -.16106E-01         .000      .000
    .420    -.16670E-02    -.32365E-03     .11174E+01    -.18760E+00    -.13129E-01         .000      .000
    .430    -.17893E-02    -.47862E-03     .37749E+00    -.88020E-02    -.11588E-01         .000      .000
    .440    -.19055E-02    -.65580E-03    -.97373E+00     .27430E+00    -.12093E-01         .000      .000
    .450    -.20344E-02    -.81830E-03    -.25497E+01     .57265E+00    -.13591E-01         .000      .000
    .460    -.21772E-02    -.92276E-03    -.37991E+01     .77760E+00    -.15101E-01         .000      .000
    .470    -.23432E-02    -.93536E-03    -.41990E+01     .79641E+00    -.18671E-01         .000      .000
    .480    -.25572E-02    -.84682E-03    -.34547E+01     .59375E+00    -.24185E-01         .000      .000
    .490    -.28262E-02    -.68011E-03    -.17552E+01     .23275E+00    -.29450E-01         .000      .000
    .500    -.31448E-02    -.48037E-03     .39927E+00    -.18822E+00    -.34290E-01         .000      .000
    .510    -.35156E-02    -.29917E-03     .26138E+01    -.60136E+00    -.40200E-01         .000      .000
    .520    -.39442E-02    -.18888E-03     .44806E+01    -.92037E+00    -.44689E-01         .000      .000
    .530    -.43844E-02    -.19362E-03     .54332E+01    -.10398E+01    -.41649E-01         .000      .000
    .540    -.47416E-02    -.33066E-03     .52312E+01    -.94989E+00    -.27959E-01         .000      .000
    .550    -.49081E-02    -.58841E-03     .42442E+01    -.74234E+00    -.36859E-02         .000      .000
    .560    -.47906E-02    -.94848E-03     .27448E+01    -.43783E+00     .28001E-01         .000      .000
    .570    -.43345E-02    -.13950E-02     .37305E+00     .62280E-01     .63807E-01         .000      .000
    .580    -.35119E-02    -.18937E-02    -.33516E+01     .83488E+00     .10039E+00         .000      .000
    .590    -.23315E-02    -.23698E-02    -.83149E+01     .18159E+01     .13548E+00         .000      .000
    .600    -.79575E-03    -.27092E-02    -.13679E+02     .28129E+01     .17247E+00         .000      .000
    .610     .11292E-02    -.27830E-02    -.18224E+02     .35794E+01     .21278E+00         .000      .000
    .620     .34621E-02    -.24800E-02    -.20596E+02     .38607E+01     .25370E+00         .000      .000
    .630     .61839E-02    -.17466E-02    -.19849E+02     .35264E+01     .28881E+00         .000      .000
    .640     .91939E-02    -.61229E-03    -.16185E+02     .26875E+01     .31068E+00         .000      .000
    .650     .12338E-01     .82649E-03    -.10772E+02     .16004E+01     .31484E+00         .000      .000
    .660     .15415E-01     .24506E-02    -.48565E+01     .48253E+00     .29632E+00         .000      .000
    .670     .18174E-01     .41542E-02     .96067E+00    -.59134E+00     .25076E+00         .000      .000
    .680     .20347E-01     .58527E-02     .66689E+01    -.16420E+01     .18042E+00         .000      .000
    .690     .21731E-01     .74740E-02     .12512E+02    -.27324E+01     .94729E-01         .000      .000
    .700     .22216E-01     .89481E-02     .19030E+02    -.39877E+01     .11244E-02         .000      .000
    .710     .21742E-01     .10180E-01     .26856E+02    -.55123E+01    -.96096E-01         .000      .000
    .720     .20308E-01     .11016E-01     .35626E+02    -.71522E+01    -.18886E+00         .000      .000
    .730     .18010E-01     .11247E-01     .43334E+02    -.84554E+01    -.26787E+00         .000      .000
    .740     .14993E-01     .10676E-01     .47434E+02    -.89522E+01    -.33407E+00         .000      .000
    .750     .11353E-01     .91852E-02     .46116E+02    -.83453E+01    -.39286E+00         .000      .000
    .760     .71799E-02     .67807E-02     .38268E+02    -.64554E+01    -.43846E+00         .000      .000
    .770     .26663E-02     .36218E-02     .23705E+02    -.33411E+01    -.45949E+00         .000      .000
    .780    -.19053E-02     .41964E-04     .46303E+01     .41705E+00    -.44947E+00         .000      .000
    .790    -.62074E-02    -.35214E-02    -.14540E+02     .39201E+01    -.40505E+00         .000      .000
    .800    -.98835E-02    -.66694E-02    -.29961E+02     .65426E+01    -.32393E+00         .000      .000
    .810    -.12584E-01    -.91373E-02    -.40152E+02     .81345E+01    -.21215E+00         .000      .000
    .820    -.14070E-01    -.10802E-01    -.45380E+02     .88204E+01    -.83386E-01         .000      .000
    .830    -.14230E-01    -.11654E-01    -.46934E+02     .89039E+01     .51882E-01         .000      .000
    .840    -.13042E-01    -.11745E-01    -.46826E+02     .87869E+01     .18455E+00         .000      .000
    .850    -.10573E-01    -.11116E-01    -.46465E+02     .86607E+01     .30707E+00         .000      .000
    .860    -.69671E-02    -.97575E-02    -.45468E+02     .83579E+01     .40944E+00         .000      .000
    .870    -.24864E-02    -.76346E-02    -.42210E+02     .75386E+01     .48113E+00         .000      .000
    .880     .25404E-02    -.47504E-02    -.35076E+02     .59272E+01     .51826E+00         .000      .000
    .890     .77375E-02    -.11938E-02    -.23228E+02     .34131E+01     .51305E+00         .000      .000
    .900     .12641E-01     .28385E-02    -.66287E+01     .38847E-01     .45988E+00         .000      .000
    .910     .16783E-01     .70338E-02     .13575E+02    -.38951E+01     .36139E+00         .000      .000
    .920     .19725E-01     .10991E-01     .34813E+02    -.78442E+01     .22003E+00         .000      .000
    .930     .21075E-01     .14294E-01     .54230E+02    -.11291E+02     .46136E-01         .000      .000
    .940     .20619E-01     .16577E-01     .69568E+02    -.13852E+02    -.13646E+00         .000      .000
    .950     .18420E-01     .17568E-01     .79295E+02    -.15300E+02    -.29675E+00         .000      .000
    .960     .14840E-01     .17112E-01     .82965E+02    -.15622E+02    -.41022E+00         .000      .000
    .970     .10335E-01     .15150E-01     .80727E+02    -.14835E+02    -.48791E+00         .000      .000
    .980     .50976E-02     .11687E-01     .71756E+02    -.12674E+02    -.56068E+00         .000      .000
    .990    -.86883E-03     .68239E-02     .53433E+02    -.85626E+01    -.63031E+00         .000      .000
   1.000    -.74293E-02     .88360E-03     .23734E+02    -.22989E+01    -.67629E+00         .000      .000
   1.010    -.14208E-01    -.54711E-02    -.13717E+02     .50123E+01    -.66691E+00         .000      .000
   1.020    -.20479E-01    -.11356E-01    -.49281E+02     .11332E+02    -.57187E+00         .000      .000
   1.030    -.25383E-01    -.15994E-01    -.73642E+02     .15097E+02    -.39854E+00         .000      .000
   1.040    -.28310E-01    -.18985E-01    -.83172E+02     .16015E+02    -.18320E+00         .000      .000
   1.050    -.29036E-01    -.20359E-01    -.81058E+02     .15056E+02     .35730E-01         .000      .000
   1.060    -.27658E-01    -.20407E-01    -.74799E+02     .13757E+02     .23646E+00         .000      .000
   1.070    -.24375E-01    -.19404E-01    -.70653E+02     .13091E+02     .41693E+00         .000      .000
   1.080    -.19375E-01    -.17419E-01    -.69474E+02     .12888E+02     .58054E+00         .000      .000
   1.090    -.12797E-01    -.14344E-01    -.67230E+02     .12196E+02     .73399E+00         .000      .000
   1.100    -.47211E-02    -.10069E-01    -.58732E+02     .10069E+02     .87937E+00         .000      .000
   1.110     .47071E-02    -.46660E-02    -.40893E+02     .60937E+01     .99981E+00         .000      .000
   1.120     .15115E-01     .15251E-02    -.14241E+02     .60733E+00     .10726E+01         .000      .000
   1.130     .25950E-01     .79100E-02     .16465E+02    -.52559E+01     .10833E+01         .000      .000
   1.140     .36568E-01     .13799E-01     .43831E+02    -.10047E+02     .10307E+01         .000      .000
   1.150     .46353E-01     .18640E-01     .61947E+02    -.12830E+02     .91499E+00         .000      .000
   1.160     .54652E-01     .22165E-01     .69161E+02    -.13539E+02     .73457E+00         .000      .000
   1.170     .60870E-01     .24396E-01     .67482E+02    -.12709E+02     .50179E+00         .000      .000
   1.180     .64546E-01     .25552E-01     .60708E+02    -.11138E+02     .22624E+00         .000      .000
   1.190     .65324E-01     .25945E-01     .53815E+02    -.98353E+01    -.70816E-01         .000      .000
   1.200     .63155E-01     .25831E-01     .51573E+02    -.96328E+01    -.36068E+00         .000      .000
   1.210     .58119E-01     .25276E-01     .56074E+02    -.10741E+02    -.64807E+00         .000      .000
   1.220     .50153E-01     .24103E-01     .65839E+02    -.12658E+02    -.94736E+00         .000      .000
   1.230     .39170E-01     .21952E-01     .75387E+02    -.14140E+02    -.12466E+01         .000      .000
   1.240     .25302E-01     .18472E-01     .77524E+02    -.13888E+02    -.15210E+01         .000      .000
   1.250     .89437E-02     .13575E-01     .69323E+02    -.11723E+02    -.17375E+01         .000      .000
   1.260    -.91420E-02     .74682E-02     .53888E+02    -.84866E+01    -.18628E+01         .000      .000
   1.270    -.27975E-01     .49709E-03     .35875E+02    -.50251E+01    -.18871E+01         .000      .000
   1.280    -.46588E-01    -.70226E-02     .17896E+02    -.16748E+01    -.18227E+01         .000      .000
   1.290    -.64215E-01    -.14863E-01    -.39455E+00     .18036E+01    -.16939E+01         .000      .000
   1.300    -.80301E-01    -.22838E-01    -.21612E+02     .59875E+01    -.15154E+01         .000      .000
   1.310    -.94355E-01    -.30675E-01    -.48118E+02     .11223E+02    -.12866E+01         .000      .000
   1.320    -.10585E+00    -.37910E-01    -.79011E+02     .17103E+02    -.10027E+01         .000      .000
   1.330    -.11420E+00    -.43913E-01    -.10939E+03     .22516E+02    -.65725E+00         .000      .000
   1.340    -.11882E+00    -.48050E-01    -.13285E+03     .26265E+02    -.26128E+00         .000      .000
   1.350    -.11933E+00    -.49864E-01    -.14469E+03     .27614E+02     .16307E+00         .000      .000
   1.360    -.11553E+00    -.49199E-01    -.14364E+03     .26552E+02     .59593E+00         .000      .000
   1.370    -.10749E+00    -.46193E-01    -.13198E+03     .23677E+02     .10053E+01         .000      .000
   1.380    -.95623E-01    -.41181E-01    -.11350E+03     .19751E+02     .13565E+01         .000      .000
   1.390    -.80716E-01    -.34583E-01    -.92013E+02     .15507E+02     .16018E+01         .000      .000
   1.400    -.64104E-01    -.26799E-01    -.70634E+02     .11483E+02     .16919E+01         .000      .000
   1.410    -.47353E-01    -.18122E-01    -.50406E+02     .77230E+01     .16397E+01         .000      .000
   1.420    -.31568E-01    -.87115E-02    -.29167E+02     .35714E+01     .15103E+01         .000      .000
   1.430    -.17258E-01     .13324E-02    -.46200E+00    -.24478E+01     .13473E+01         .000      .000
   1.440    -.47566E-02     .11695E-01     .43313E+02    -.11606E+02     .11437E+01         .000      .000
   1.450     .53973E-02     .21510E-01     .10112E+03    -.22964E+02     .87546E+00         .000      .000
   1.460     .12505E-01     .29389E-01     .15847E+03    -.33147E+02     .53432E+00         .000      .000
   1.470     .15957E-01     .33942E-01     .19635E+03    -.38693E+02     .15601E+00         .000      .000
   1.480     .15707E-01     .34375E-01     .20389E+03    -.38223E+02    -.19774E+00         .000      .000
   1.490     .12233E-01     .30723E-01     .18230E+03    -.32586E+02    -.48288E+00         .000      .000
   1.500     .63500E-02     .23676E-01     .14036E+03    -.23678E+02    -.67858E+00         .000      .000
   1.510    -.10289E-02     .14254E-01     .87500E+02    -.13194E+02    -.78187E+00         .000      .000
   1.520    -.89738E-02     .35648E-02     .30605E+02    -.23087E+01    -.79152E+00         .000      .000
   1.530    -.16582E-01    -.73027E-02    -.25123E+02     .80519E+01    -.71832E+00         .000      .000
   1.540    -.23127E-01    -.17351E-01    -.75316E+02     .17122E+02    -.58138E+00         .000      .000
   1.550    -.27996E-01    -.25741E-01    -.11720E+03     .24493E+02    -.38043E+00         .000      .000
   1.560    -.30557E-01    -.31807E-01    -.14966E+03     .29992E+02    -.12612E+00         .000      .000
   1.570    -.30484E-01    -.35014E-01    -.17068E+03     .33143E+02     .13826E+00         .000      .000
   1.580    -.27868E-01    -.35008E-01    -.17689E+03     .33335E+02     .37977E+00         .000      .000
   1.590    -.23024E-01    -.31719E-01    -.16705E+03     .30513E+02     .58080E+00         .000      .000
   1.600    -.16445E-01    -.25362E-01    -.14191E+03     .24837E+02     .72396E+00         .000      .000
   1.610    -.87551E-02    -.16403E-01    -.10141E+03     .16258E+02     .80395E+00         .000      .000
   1.620    -.55803E-03    -.56120E-02    -.46615E+02     .51476E+01     .82663E+00         .000      .000
   1.630     .75459E-02     .59099E-02     .17310E+02    -.72755E+01     .78044E+00         .000      .000
   1.640     .14771E-01     .16850E-01     .81978E+02    -.19287E+02     .65113E+00         .000      .000
   1.650     .20339E-01     .25880E-01     .13743E+03    -.28946E+02     .45361E+00         .000      .000
   1.660     .23689E-01     .31909E-01     .17413E+03    -.34580E+02     .21023E+00         .000      .000
   1.670     .24478E-01     .34322E-01     .18731E+03    -.35656E+02    -.52715E-01         .000      .000
   1.680     .22648E-01     .33056E-01     .17834E+03    -.32714E+02    -.31188E+00         .000      .000
   1.690     .18311E-01     .28483E-01     .15151E+03    -.26653E+02    -.55012E+00         .000      .000
   1.700     .11780E-01     .21278E-01     .11182E+03    -.18458E+02    -.74837E+00         .000      .000
   1.710     .35118E-02     .12310E-01     .64715E+02    -.91917E+01    -.89668E+00         .000      .000
   1.720    -.59418E-02     .25316E-02     .15884E+02     .67790E-01    -.98201E+00         .000      .000
   1.730    -.15888E-01    -.71399E-02    -.29819E+02     .84726E+01    -.99554E+00         .000      .000
   1.740    -.25629E-01    -.15903E-01    -.68991E+02     .15448E+02    -.94217E+00         .000      .000
   1.750    -.34494E-01    -.23118E-01    -.99236E+02     .20591E+02    -.81780E+00         .000      .000
   1.760    -.41740E-01    -.28328E-01    -.11925E+03     .23715E+02    -.61998E+00         .000      .000
   1.770    -.46709E-01    -.31270E-01    -.12836E+03     .24706E+02    -.36672E+00         .000      .000
   1.780    -.48988E-01    -.31880E-01    -.12614E+03     .23544E+02    -.87521E-01         .000      .000
   1.790    -.48475E-01    -.30323E-01    -.11406E+03     .20672E+02     .18703E+00         .000      .000
   1.800    -.45343E-01    -.26940E-01    -.95782E+02     .16854E+02     .43301E+00         .000      .000
   1.810    -.39937E-01    -.22130E-01    -.74516E+02     .12611E+02     .64266E+00         .000      .000
   1.820    -.32579E-01    -.16271E-01    -.51339E+02     .80258E+01     .82564E+00         .000      .000
   1.830    -.23528E-01    -.97308E-02    -.25934E+02     .30050E+01     .97745E+00         .000      .000
