


 TIME HISTORY FOR STORY NO.  3



    TIME   DISPLACEMENT    STORY DRIFT    STORY SHEAR   ACCELERATION     VELOCITY          DAMAGE    DAMAGE
                                                                                          BEAM-SLAB  COL-WALL

    .000     .00000E+00     .00000E+00     .00000E+00     .00000E+00     .00000E+00         .000      .000
    .010    -.10188E-05     .21013E-07     .53050E-02    -.14281E-02    -.19701E-03         .000      .000
    .020    -.40685E-05    -.18362E-06     .22838E-01    -.20563E-02    -.43495E-03         .000      .000
    .030    -.97070E-05    -.12802E-05     .28947E-01     .17867E-02    -.67013E-03         .000      .000
    .040    -.17315E-04    -.36139E-05     .11928E-01     .82118E-02    -.85987E-03         .000      .000
    .050    -.26647E-04    -.70058E-05    -.17159E-01     .12146E-01    -.97365E-03         .000      .000
    .060    -.36430E-04    -.11252E-04    -.55294E-01     .15945E-01    -.97840E-03         .000      .000
    .070    -.45909E-04    -.15962E-04    -.10270E+00     .18990E-01    -.89249E-03         .000      .000
    .080    -.54171E-04    -.20484E-04    -.14367E+00     .20634E-01    -.77414E-03         .000      .000
    .090    -.61549E-04    -.24266E-04    -.16033E+00     .19254E-01    -.70324E-03         .000      .000
    .100    -.68888E-04    -.27316E-04    -.14728E+00     .16866E-01    -.82685E-03         .000      .000
    .110    -.78741E-04    -.30244E-04    -.10649E+00     .13746E-01    -.11461E-02         .000      .000
    .120    -.91763E-04    -.34386E-04    -.69446E-01     .16825E-01    -.14486E-02         .000      .000
    .130    -.10695E-03    -.40836E-04    -.80472E-01     .24947E-01    -.15259E-02         .000      .000
    .140    -.12167E-03    -.49371E-04    -.14239E+00     .30744E-01    -.14238E-02         .000      .000
    .150    -.13489E-03    -.58631E-04    -.21281E+00     .26845E-01    -.11613E-02         .000      .000
    .160    -.14424E-03    -.67450E-04    -.27747E+00     .22663E-01    -.69661E-03         .000      .000
    .170    -.14866E-03    -.74553E-04    -.33116E+00     .17974E-01    -.18425E-03         .000      .000
    .180    -.14811E-03    -.78526E-04    -.32737E+00     .79540E-02     .27071E-03         .000      .000
    .190    -.14342E-03    -.79211E-04    -.25773E+00    -.42231E-02     .67402E-03         .000      .000
    .200    -.13391E-03    -.77702E-04    -.16745E+00    -.12481E-01     .12954E-02         .000      .000
    .210    -.11602E-03    -.74911E-04    -.11731E+00    -.16791E-01     .23603E-02         .000      .000
    .220    -.86155E-04    -.69953E-04    -.10857E+00    -.29744E-01     .35850E-02         .000      .000
    .230    -.45933E-04    -.60594E-04    -.60570E-01    -.62458E-01     .43274E-02         .000      .000
    .240    -.40554E-05    -.45927E-04     .94291E-01    -.10385E+00     .37436E-02         .000      .000
    .250     .25484E-04    -.28166E-04     .36311E+00    -.13254E+00     .21350E-02         .000      .000
    .260     .37329E-04    -.12983E-04     .58823E+00    -.11599E+00     .13620E-03         .000      .000
    .270     .26926E-04    -.45538E-05     .67238E+00    -.82632E-01    -.22643E-02         .000      .000
    .280    -.78762E-05    -.48724E-05     .66581E+00    -.54393E-01    -.46368E-02         .000      .000
    .290    -.64613E-04    -.16436E-04     .48893E+00    -.10569E-01    -.66447E-02         .000      .000
    .300    -.13782E-03    -.38947E-04     .10358E+00     .47976E-01    -.77732E-02         .000      .000
    .310    -.21504E-03    -.68186E-04    -.41620E+00     .11328E+00    -.73966E-02         .000      .000
    .320    -.28254E-03    -.97318E-04    -.95120E+00     .16501E+00    -.60685E-02         .000      .000
    .330    -.33828E-03    -.11890E-03    -.12679E+01     .17260E+00    -.53049E-02         .000      .000
    .340    -.39220E-03    -.13107E-03    -.12114E+01     .15524E+00    -.55899E-02         .000      .000
    .350    -.45174E-03    -.14070E-03    -.97378E+00     .17112E+00    -.63590E-02         .000      .000
    .360    -.52196E-03    -.15614E-03    -.80201E+00     .21091E+00    -.79212E-02         .000      .000
    .370    -.60976E-03    -.18221E-03    -.67227E+00     .22605E+00    -.93650E-02         .000      .000
    .380    -.70117E-03    -.22449E-03    -.78183E+00     .26021E+00    -.83629E-02         .000      .000
    .390    -.76528E-03    -.28169E-03    -.14017E+01     .30891E+00    -.38670E-02         .000      .000
    .400    -.76893E-03    -.33708E-03    -.22401E+01     .28979E+00     .34721E-02         .000      .000
    .410    -.69333E-03    -.36784E-03    -.27397E+01     .16843E+00     .11566E-01         .000      .000
    .420    -.54481E-03    -.35825E-03    -.25257E+01    -.20260E-01     .17522E-01         .000      .000
    .430    -.35816E-03    -.30627E-03    -.14672E+01    -.22400E+00     .18923E-01         .000      .000
    .440    -.18742E-03    -.22633E-03     .27650E+00    -.39119E+00     .14027E-01         .000      .000
    .450    -.95544E-04    -.14743E-03     .22780E+01    -.48984E+00     .37733E-02         .000      .000
    .460    -.12197E-03    -.10676E-03     .37408E+01    -.46011E+00    -.94700E-02         .000      .000
    .470    -.29289E-03    -.13196E-03     .40455E+01    -.33950E+00    -.25126E-01         .000      .000
    .480    -.62333E-03    -.23180E-03     .32619E+01    -.18163E+00    -.40425E-01         .000      .000
    .490    -.10839E-02    -.40431E-03     .13310E+01     .95186E-01    -.50465E-01         .000      .000
    .500    -.16066E-02    -.62941E-03    -.17076E+01     .46200E+00    -.52765E-01         .000      .000
    .510    -.21172E-02    -.86439E-03    -.49324E+01     .74762E+00    -.48517E-01         .000      .000
    .520    -.25528E-02    -.10668E-02    -.72656E+01     .88962E+00    -.37012E-01         .000      .000
    .530    -.28207E-02    -.12155E-02    -.87634E+01     .10198E+01    -.14456E-01         .000      .000
    .540    -.28018E-02    -.12921E-02    -.99174E+01     .10956E+01     .20045E-01         .000      .000
    .550    -.23913E-02    -.12602E-02    -.10254E+02     .87410E+00     .63020E-01         .000      .000
    .560    -.15391E-02    -.10821E-02    -.89672E+01     .26076E+00     .10670E+00         .000      .000
    .570    -.28258E-03    -.73818E-03    -.56508E+01    -.64014E+00     .14285E+00         .000      .000
    .580     .12673E-02    -.23649E-03    -.41913E+00    -.16188E+01     .16388E+00         .000      .000
    .590     .29280E-02     .38840E-03     .64130E+01    -.25541E+01     .16487E+00         .000      .000
    .600     .45087E-02     .10700E-02     .13974E+02    -.32819E+01     .14918E+00         .000      .000
    .610     .58745E-02     .17199E-02     .20266E+02    -.36203E+01     .12239E+00         .000      .000
    .620     .69348E-02     .22712E-02     .23870E+02    -.36600E+01     .89035E-01         .000      .000
    .630     .76389E-02     .26960E-02     .24600E+02    -.34935E+01     .50786E-01         .000      .000
    .640     .79352E-02     .29968E-02     .23010E+02    -.31318E+01     .79447E-02         .000      .000
    .650     .77883E-02     .31878E-02     .19881E+02    -.24633E+01    -.37711E-01         .000      .000
    .660     .71707E-02     .32818E-02     .15911E+02    -.14569E+01    -.86456E-01         .000      .000
    .670     .60432E-02     .32790E-02     .11997E+02    -.23061E+00    -.14001E+00         .000      .000
    .680     .43669E-02     .31464E-02     .83869E+01     .11912E+01    -.19460E+00         .000      .000
    .690     .21881E-02     .28159E-02     .36611E+01     .29455E+01    -.23812E+00         .000      .000
    .700    -.31945E-03     .22367E-02    -.40356E+01     .49259E+01    -.25899E+00         .000      .000
    .710    -.28933E-02     .14313E-02    -.14593E+02     .66702E+01    -.25056E+00         .000      .000
    .720    -.52125E-02     .49265E-03    -.26300E+02     .78658E+01    -.20678E+00         .000      .000
    .730    -.69019E-02    -.44495E-03    -.37548E+02     .84890E+01    -.12497E+00         .000      .000
    .740    -.76288E-02    -.12094E-02    -.46014E+02     .83186E+01    -.18410E-01         .000      .000
    .750    -.72713E-02    -.16244E-02    -.47614E+02     .69701E+01     .87749E-01         .000      .000
    .760    -.59344E-02    -.16122E-02    -.39853E+02     .46886E+01     .17601E+00         .000      .000
    .770    -.38353E-02    -.12449E-02    -.25024E+02     .22054E+01     .23925E+00         .000      .000
    .780    -.12446E-02    -.67238E-03    -.72841E+01    -.23757E+00     .27391E+00         .000      .000
    .790     .15516E-02    -.45063E-04     .10337E+02    -.27521E+01     .28119E+00         .000      .000
    .800     .43150E-02     .50797E-03     .24977E+02    -.51589E+01     .26934E+00         .000      .000
    .810     .68966E-02     .91668E-03     .34062E+02    -.71486E+01     .24499E+00         .000      .000
    .820     .91746E-02     .12150E-02     .37992E+02    -.87554E+01     .20854E+00         .000      .000
    .830     .11029E-01     .15011E-02     .39670E+02    -.99772E+01     .16078E+00         .000      .000
    .840     .12352E-01     .18510E-02     .41091E+02    -.10548E+02     .10170E+00         .000      .000
    .850     .13027E-01     .22821E-02     .42893E+02    -.10352E+02     .31808E-01         .000      .000
    .860     .12947E-01     .27460E-02     .44659E+02    -.93973E+01    -.50519E-01         .000      .000
    .870     .11975E-01     .31379E-02     .45206E+02    -.78103E+01    -.14543E+00         .000      .000
    .880     .10027E-01     .33162E-02     .42412E+02    -.55064E+01    -.24362E+00         .000      .000
    .890     .71204E-02     .31542E-02     .33713E+02    -.24434E+01    -.33655E+00         .000      .000
    .900     .33449E-02     .26080E-02     .19090E+02     .10016E+01    -.41500E+00         .000      .000
    .910    -.10895E-02     .17081E-02     .24970E+00     .46192E+01    -.46648E+00         .000      .000
    .920    -.58726E-02     .53434E-03    -.21021E+02     .82399E+01    -.48447E+00         .000      .000
    .930    -.10647E-01    -.79072E-03    -.41820E+02     .11469E+02    -.46311E+00         .000      .000
    .940    -.14964E-01    -.21437E-02    -.59825E+02     .14125E+02    -.39065E+00         .000      .000
    .950    -.18241E-01    -.34116E-02    -.74657E+02     .16033E+02    -.25266E+00         .000      .000
    .960    -.19786E-01    -.44456E-02    -.86055E+02     .16691E+02    -.45642E-01         .000      .000
    .970    -.19051E-01    -.50278E-02    -.91414E+02     .15260E+02     .19185E+00         .000      .000
    .980    -.16074E-01    -.49256E-02    -.84272E+02     .11075E+02     .39183E+00         .000      .000
    .990    -.11483E-01    -.40862E-02    -.60630E+02     .52062E+01     .51209E+00         .000      .000
   1.000    -.61227E-02    -.27420E-02    -.25879E+02    -.21840E+00     .54596E+00         .000      .000
   1.010    -.77170E-03    -.12616E-02     .11022E+02    -.44668E+01     .51747E+00         .000      .000
   1.020     .41552E-02     .93498E-05     .42109E+02    -.77516E+01     .46741E+00         .000      .000
   1.030     .85678E-02     .86081E-03     .60987E+02    -.10551E+02     .41451E+00         .000      .000
   1.040     .12415E-01     .13155E-02     .67445E+02    -.13412E+02     .35242E+00         .000      .000
   1.050     .15539E-01     .15696E-02     .66536E+02    -.16004E+02     .26742E+00         .000      .000
   1.060     .17673E-01     .18462E-02     .63927E+02    -.17460E+02     .15576E+00         .000      .000
   1.070     .18600E-01     .22757E-02     .63079E+02    -.17166E+02     .27965E-01         .000      .000
   1.080     .18228E-01     .28441E-02     .64229E+02    -.15230E+02    -.10142E+00         .000      .000
   1.090     .16635E-01     .34048E-02     .64670E+02    -.12136E+02    -.21190E+00         .000      .000
   1.100     .14127E-01     .37519E-02     .58939E+02    -.81717E+01    -.28144E+00         .000      .000
   1.110     .11166E-01     .37727E-02     .42910E+02    -.38413E+01    -.30335E+00         .000      .000
   1.120     .82007E-02     .35550E-02     .18773E+02     .72202E-01    -.28328E+00         .000      .000
   1.130     .56065E-02     .33244E-02    -.72657E+01     .33558E+01    -.23142E+00         .000      .000
   1.140     .36434E-02     .33225E-02    -.29036E+02     .61414E+01    -.15824E+00         .000      .000
   1.150     .24444E-02     .37145E-02    -.41904E+02     .84276E+01    -.84318E-01         .000      .000
   1.160     .18611E-02     .45245E-02    -.42778E+02     .98314E+01    -.39228E-01         .000      .000
   1.170     .15136E-02     .55655E-02    -.32585E+02     .10523E+02    -.37735E-01         .000      .000
   1.180     .94203E-03     .64614E-02    -.18463E+02     .11202E+02    -.85334E-01         .000      .000
   1.190    -.29107E-03     .68201E-02    -.78939E+01     .12012E+02    -.16229E+00         .000      .000
   1.200    -.22739E-02     .63636E-02    -.69868E+01     .13188E+02    -.23022E+00         .000      .000
   1.210    -.48304E-02     .50506E-02    -.18084E+02     .14231E+02    -.27901E+00         .000      .000
   1.220    -.78234E-02     .31102E-02    -.34622E+02     .14107E+02    -.31879E+00         .000      .000
   1.230    -.11167E-01     .83565E-03    -.48620E+02     .13214E+02    -.34635E+00         .000      .000
   1.240    -.14671E-01    -.15760E-02    -.58136E+02     .12626E+02    -.35006E+00         .000      .000
   1.250    -.18032E-01    -.39830E-02    -.62773E+02     .12125E+02    -.31317E+00         .000      .000
   1.260    -.20748E-01    -.62841E-02    -.62586E+02     .11051E+02    -.22040E+00         .000      .000
   1.270    -.22269E-01    -.84045E-02    -.59613E+02     .88191E+01    -.76594E-01         .000      .000
   1.280    -.22197E-01    -.10230E-01    -.54631E+02     .50458E+01     .91844E-01         .000      .000
   1.290    -.20481E-01    -.11595E-01    -.45681E+02    -.15411E+00     .24579E+00         .000      .000
   1.300    -.17431E-01    -.12359E-01    -.29877E+02    -.60928E+01     .35516E+00         .000      .000
   1.310    -.13564E-01    -.12492E-01    -.68528E+01    -.11744E+02     .40895E+00         .000      .000
   1.320    -.94303E-02    -.12098E-01     .20564E+02    -.16444E+02     .40950E+00         .000      .000
   1.330    -.54993E-02    -.11370E-01     .47901E+02    -.20040E+02     .37253E+00         .000      .000
   1.340    -.20665E-02    -.10533E-01     .69374E+02    -.22428E+02     .30953E+00         .000      .000
   1.350     .63749E-03    -.97375E-02     .81295E+02    -.23797E+02     .23038E+00         .000      .000
   1.360     .25393E-02    -.90279E-02     .82612E+02    -.23907E+02     .15087E+00         .000      .000
   1.370     .36643E-02    -.83346E-02     .74340E+02    -.22658E+02     .74084E-01         .000      .000
   1.380     .40015E-02    -.74966E-02     .61737E+02    -.20478E+02    -.86784E-02         .000      .000
   1.390     .33611E-02    -.63965E-02     .50772E+02    -.17535E+02    -.13029E+00         .000      .000
   1.400     .11258E-02    -.50925E-02     .45749E+02    -.13863E+02    -.33268E+00         .000      .000
   1.410    -.34943E-02    -.39299E-02     .45455E+02    -.85260E+01    -.59498E+00         .000      .000
   1.420    -.10673E-01    -.35038E-02     .36990E+02     .10159E+00    -.82675E+00         .000      .000
   1.430    -.19638E-01    -.42629E-02     .61864E+01     .11116E+02    -.94219E+00         .000      .000
   1.440    -.29036E-01    -.61384E-02    -.46334E+02     .21100E+02    -.91488E+00         .000      .000
   1.450    -.37521E-01    -.86104E-02    -.10715E+03     .27759E+02    -.76376E+00         .000      .000
   1.460    -.44015E-01    -.11012E-01    -.16213E+03     .31550E+02    -.52328E+00         .000      .000
   1.470    -.47750E-01    -.12724E-01    -.19986E+03     .33408E+02    -.21141E+00         .000      .000
   1.480    -.48041E-01    -.13303E-01    -.21287E+03     .33483E+02     .16061E+00         .000      .000
   1.490    -.44455E-01    -.12561E-01    -.19858E+03     .30642E+02     .55668E+00         .000      .000
   1.500    -.37014E-01    -.10591E-01    -.15932E+03     .24115E+02     .92097E+00         .000      .000
   1.510    -.26327E-01    -.77411E-02    -.10356E+03     .14655E+02     .11985E+01         .000      .000
   1.520    -.13436E-01    -.44603E-02    -.42337E+02     .38908E+01     .13594E+01         .000      .000
   1.530     .41822E-03    -.11223E-02     .15723E+02    -.68442E+01     .13880E+01         .000      .000
   1.540     .13861E-01     .20537E-02     .68096E+02    -.16990E+02     .12778E+01         .000      .000
   1.550     .25596E-01     .49077E-02     .11436E+03    -.25556E+02     .10545E+01         .000      .000
   1.560     .34675E-01     .72494E-02     .15000E+03    -.31098E+02     .74871E+00         .000      .000
   1.570     .40324E-01     .89415E-02     .17244E+03    -.33710E+02     .36901E+00         .000      .000
   1.580     .41876E-01     .98822E-02     .18357E+03    -.33735E+02    -.64100E-01         .000      .000
   1.590     .39005E-01     .98791E-02     .18059E+03    -.30257E+02    -.50796E+00         .000      .000
   1.600     .31847E-01     .87473E-02     .15799E+03    -.23045E+02    -.91320E+00         .000      .000
   1.610     .21058E-01     .64793E-02     .11548E+03    -.13187E+02    -.12239E+01         .000      .000
   1.620     .78658E-02     .32628E-02     .56338E+02    -.18792E+01    -.13861E+01         .000      .000
   1.630    -.61099E-02    -.52235E-03    -.14070E+02     .95372E+01    -.13830E+01         .000      .000
   1.640    -.19301E-01    -.43116E-02    -.84485E+02     .19270E+02    -.12324E+01         .000      .000
   1.650    -.30334E-01    -.75348E-02    -.14244E+03     .26596E+02    -.95473E+00         .000      .000
   1.660    -.38084E-01    -.97865E-02    -.18147E+03     .31517E+02    -.58393E+00         .000      .000
   1.670    -.41851E-01    -.10829E-01    -.19760E+03     .33321E+02    -.16494E+00         .000      .000
   1.680    -.41402E-01    -.10624E-01    -.18950E+03     .31610E+02     .24830E+00         .000      .000
   1.690    -.37083E-01    -.93491E-02    -.16032E+03     .26598E+02     .60258E+00         .000      .000
   1.700    -.29669E-01    -.73446E-02    -.11685E+03     .19266E+02     .86197E+00         .000      .000
   1.710    -.20240E-01    -.50014E-02    -.67122E+02     .10699E+02     .10029E+01         .000      .000
   1.720    -.10010E-01    -.26620E-02    -.16876E+02     .16979E+01     .10247E+01         .000      .000
   1.730    -.97864E-04    -.60481E-03     .28896E+02    -.67298E+01     .94147E+00         .000      .000
   1.740     .85219E-02     .98159E-03     .66471E+02    -.13936E+02     .76934E+00         .000      .000
   1.750     .15108E-01     .20002E-02     .94498E+02    -.19437E+02     .54328E+00         .000      .000
   1.760     .19349E-01     .24055E-02     .11050E+03    -.22525E+02     .30594E+00         .000      .000
   1.770     .21280E-01     .22525E-02     .11330E+03    -.23421E+02     .84074E-01         .000      .000
   1.780     .21117E-01     .17103E-02     .10617E+03    -.22878E+02    -.11217E+00         .000      .000
   1.790     .19128E-01     .96376E-03     .93139E+02    -.21114E+02    -.28086E+00         .000      .000
   1.800     .15600E-01     .14001E-03     .76293E+02    -.17941E+02    -.41949E+00         .000      .000
   1.810     .10882E-01    -.69005E-03     .56594E+02    -.13395E+02    -.51516E+00         .000      .000
   1.820     .55262E-02    -.14913E-02     .33976E+02    -.77819E+01    -.54225E+00         .000      .000
   1.830     .28992E-03    -.22122E-02     .77989E+01    -.18579E+01    -.49388E+00         .000      .000
