


 TIME HISTORY FOR STORY NO.  5



    TIME   DISPLACEMENT    STORY DRIFT    STORY SHEAR   ACCELERATION     VELOCITY          DAMAGE    DAMAGE
                                                                                          BEAM-SLAB  COL-WALL

    .000     .00000E+00     .00000E+00     .00000E+00     .00000E+00     .00000E+00         .000      .000
    .010    -.20455E-05     .41406E-10    -.70002E-03     .22871E-03    -.17314E-04         .000      .000
    .020    -.37015E-06     .10684E-06     .13062E-02    -.13532E-02    -.73888E-04         .000      .000
    .030    -.35754E-05     .18534E-06     .12806E-01    -.14476E-02    -.14089E-03         .000      .000
    .040    -.31577E-05    -.76696E-07    -.25943E-02     .26906E-02    -.20513E-03         .000      .000
    .050    -.79688E-05    -.79789E-07     .66607E-02    -.55522E-03    -.35359E-03         .000      .000
    .060    -.10619E-04    -.17199E-06     .96074E-02    -.10138E-02    -.61955E-03         .000      .000
    .070    -.20542E-04    -.25345E-06     .22718E-01    -.31834E-02    -.93819E-03         .000      .000
    .080    -.29550E-04    -.51642E-06     .30353E-01    -.31487E-02    -.13097E-02         .000      .000
    .090    -.46981E-04    -.91372E-06     .58927E-01    -.53225E-02    -.17512E-02         .000      .000
    .100    -.64786E-04    -.20861E-05     .74831E-01    -.23818E-02    -.22590E-02         .000      .000
    .110    -.92295E-04    -.41380E-05     .10286E+00    -.19480E-02    -.28052E-02         .000      .000
    .120    -.12108E-03    -.76367E-05     .11999E+00     .25211E-03    -.34111E-02         .000      .000
    .130    -.16067E-03    -.12739E-04     .15053E+00    -.14478E-02    -.40603E-02         .000      .000
    .140    -.20229E-03    -.20104E-04     .16456E+00    -.18049E-03    -.47133E-02         .000      .000
    .150    -.25273E-03    -.29848E-04     .18769E+00    -.18877E-02    -.47008E-02         .000      .000
    .160    -.29552E-03    -.42667E-04     .19401E+00     .54210E-03    -.44552E-02         .000      .000
    .170    -.34587E-03    -.59283E-04     .18085E+00     .10968E-01    -.54111E-02         .000      .000
    .180    -.40698E-03    -.80194E-04     .65656E-01     .33475E-01    -.73492E-02         .000      .000
    .190    -.49424E-03    -.10204E-03    -.22146E-01     .20313E-01    -.97146E-02         .000      .000
    .200    -.60288E-03    -.12209E-03     .37352E-01    -.28217E-01    -.12552E-01         .000      .000
    .210    -.74512E-03    -.14162E-03     .20728E+00    -.61611E-01    -.15319E-01         .000      .000
    .220    -.90634E-03    -.16448E-03     .33844E+00    -.41594E-01    -.17213E-01         .000      .000
    .230    -.10873E-02    -.19349E-03     .43894E+00     .72361E-02    -.18483E-01         .000      .000
    .240    -.12745E-02    -.23201E-03     .46160E+00     .64359E-01    -.19302E-01         .000      .000
    .250    -.14717E-02    -.28169E-03     .41712E+00     .92375E-01    -.19649E-01         .000      .000
    .260    -.16635E-02    -.34242E-03     .32799E+00     .78280E-01    -.18828E-01         .000      .000
    .270    -.18393E-02    -.41319E-03     .23260E+00     .37891E-01    -.15296E-01         .000      .000
    .280    -.19624E-02    -.49417E-03     .48526E-01     .24411E-01    -.96396E-02         .000      .000
    .290    -.20302E-02    -.58560E-03    -.34349E+00     .76045E-01    -.34202E-02         .000      .000
    .300    -.20309E-02    -.68445E-03    -.10707E+01     .17269E+00     .27485E-02         .000      .000
    .310    -.19837E-02    -.77936E-03    -.19082E+01     .20875E+00     .63721E-02         .000      .000
    .320    -.19163E-02    -.85644E-03    -.26242E+01     .15000E+00     .61528E-02         .000      .000
    .330    -.18656E-02    -.90241E-03    -.30639E+01     .22544E-01     .44660E-02         .000      .000
    .340    -.18193E-02    -.90740E-03    -.30753E+01    -.11600E+00     .50922E-02         .000      .000
    .350    -.17361E-02    -.87157E-03    -.26572E+01    -.16761E+00     .14046E-01         .000      .000
    .360    -.15021E-02    -.80825E-03    -.21957E+01    -.37770E-01     .33876E-01         .000      .000
    .370    -.10562E-02    -.73612E-03    -.21555E+01     .26588E+00     .54400E-01         .000      .000
    .380    -.46117E-03    -.66682E-03    -.30535E+01     .62764E+00     .60761E-01         .000      .000
    .390     .96369E-04    -.58088E-03    -.45609E+01     .69316E+00     .48199E-01         .000      .000
    .400     .46334E-03    -.42755E-03    -.50749E+01     .12093E+00     .23753E-01         .000      .000
    .410     .56775E-03    -.16956E-03    -.31760E+01    -.86372E+00    -.15861E-02         .000      .000
    .420     .43378E-03     .17125E-03     .51055E+00    -.14390E+01    -.25979E-01         .000      .000
    .430     .56991E-04     .52484E-03     .39966E+01    -.10114E+01    -.47660E-01         .000      .000
    .440    -.49687E-03     .82373E-03     .60847E+01     .69788E-01    -.62878E-01         .000      .000
    .450    -.12017E-02     .10324E-02     .75822E+01     .84573E+00    -.78712E-01         .000      .000
    .460    -.20910E-02     .11250E-02     .91608E+01     .84555E+00    -.10053E+00         .000      .000
    .470    -.32176E-02     .10820E-02     .10693E+02     .21533E+00    -.12382E+00         .000      .000
    .480    -.45572E-02     .89582E-03     .12135E+02    -.59133E+00    -.14384E+00         .000      .000
    .490    -.60678E-02     .55502E-03     .13130E+02    -.97449E+00    -.15570E+00         .000      .000
    .500    -.76048E-02     .38343E-04     .12701E+02    -.59777E+00    -.14768E+00         .000      .000
    .510    -.89531E-02    -.66494E-03     .10535E+02     .26253E+00    -.11936E+00         .000      .000
    .520    -.99746E-02    -.15528E-02     .65352E+01     .11701E+01    -.85952E-01         .000      .000
    .530    -.10696E-01    -.25959E-02     .36808E+00     .17447E+01    -.59946E-01         .000      .000
    .540    -.11218E-01    -.37046E-02    -.69957E+01     .15458E+01    -.47477E-01         .000      .000
    .550    -.11677E-01    -.47465E-02    -.13319E+02     .51437E+00    -.44173E-01         .000      .000
    .560    -.12075E-01    -.56078E-02    -.17390E+02    -.67517E+00    -.32438E-01         .000      .000
    .570    -.12266E-01    -.62310E-02    -.19477E+02    -.11295E+01    -.25894E-02         .000      .000
    .580    -.12094E-01    -.66192E-02    -.21104E+02    -.32546E+00     .36992E-01         .000      .000
    .590    -.11529E-01    -.67960E-02    -.23817E+02     .13242E+01     .75446E-01         .000      .000
    .600    -.10664E-01    -.67446E-02    -.26942E+02     .24897E+01     .89850E-01         .000      .000
    .610    -.99040E-02    -.64071E-02    -.27961E+02     .21237E+01     .52558E-01         .000      .000
    .620    -.97917E-02    -.57286E-02    -.25185E+02     .36104E+00    -.38221E-01         .000      .000
    .630    -.10796E-01    -.46835E-02    -.17283E+02    -.19422E+01    -.16686E+00         .000      .000
    .640    -.13161E-01    -.33315E-02    -.39716E+01    -.35198E+01    -.30479E+00         .000      .000
    .650    -.16764E-01    -.18601E-02     .12594E+02    -.33357E+01    -.40425E+00         .000      .000
    .660    -.21015E-01    -.55519E-03     .29240E+02    -.14254E+01    -.43449E+00         .000      .000
    .670    -.25072E-01     .25196E-03     .42513E+02     .13490E+01    -.35053E+00         .000      .000
    .680    -.27599E-01     .26273E-03     .48781E+02     .38104E+01    -.13939E+00         .000      .000
    .690    -.27769E-01    -.71052E-03     .45431E+02     .52734E+01     .98919E-01         .000      .000
    .700    -.25844E-01    -.26840E-02     .28414E+02     .60012E+01     .27058E+00         .000      .000
    .710    -.22594E-01    -.53281E-02     .23164E-01     .48631E+01     .37068E+00         .000      .000
    .720    -.18635E-01    -.80073E-02    -.26761E+02     .50659E+00     .40945E+00         .000      .000
    .730    -.14684E-01    -.10178E-01    -.43484E+02    -.45494E+01     .36614E+00         .000      .000
    .740    -.11507E-01    -.11595E-01    -.54453E+02    -.59216E+01     .26556E+00         .000      .000
    .750    -.92937E-02    -.12131E-01    -.63006E+02    -.32206E+01     .18784E+00         .000      .000
    .760    -.73893E-02    -.11695E-01    -.64492E+02     .34079E+00     .21696E+00         .000      .000
    .770    -.45655E-02    -.10386E-01    -.57010E+02     .27336E+01     .36247E+00         .000      .000
    .780    -.39227E-04    -.85158E-02    -.47509E+02     .44403E+01     .53856E+00         .000      .000
    .790     .59978E-02    -.63556E-02    -.44634E+02     .57870E+01     .65206E+00         .000      .000
    .800     .12684E-01    -.38679E-02    -.46668E+02     .48059E+01     .66929E+00         .000      .000
    .810     .19118E-01    -.77094E-03    -.41916E+02    -.16121E+00     .60690E+00         .000      .000
    .820     .24627E-01     .30918E-02    -.23006E+02    -.67004E+01     .48771E+00         .000      .000
    .830     .28769E-01     .75203E-02     .47420E+01    -.97285E+01     .33916E+00         .000      .000
    .840     .31351E-01     .12083E-01     .31310E+02    -.69076E+01     .17289E+00         .000      .000
    .850     .32186E-01     .16352E-01     .52799E+02    -.99845E+00    -.71194E-02         .000      .000
    .860     .31183E-01     .20004E-01     .71825E+02     .30168E+01    -.19646E+00         .000      .000
    .870     .28183E-01     .22787E-01     .92321E+02     .22790E+01    -.40802E+00         .000      .000
    .880     .22956E-01     .24444E-01     .11333E+03    -.17690E+01    -.63851E+00         .000      .000
    .890     .15500E-01     .24734E-01     .13013E+03    -.56185E+01    -.84190E+00         .000      .000
    .900     .64596E-02     .23482E-01     .13954E+03    -.67863E+01    -.94245E+00         .000      .000
    .910    -.27046E-02     .20542E-01     .13950E+03    -.45377E+01    -.84987E+00         .000      .000
    .920    -.97267E-02     .15765E-01     .12590E+03     .54369E+00    -.51465E+00         .000      .000
    .930    -.12460E-01     .90835E-02     .92806E+02     .69878E+01    -.19071E-01         .000      .000
    .940    -.10349E-01     .71744E-03     .34947E+02     .12702E+02     .40348E+00         .000      .000
    .950    -.52836E-02    -.85566E-02    -.44388E+02     .14313E+02     .55717E+00         .000      .000
    .960    -.84378E-04    -.17301E-01    -.12480E+03     .78600E+01     .44647E+00         .000      .000
    .970     .33815E-02    -.23867E-01    -.17586E+03    -.62592E+01     .25810E+00         .000      .000
    .980     .54375E-02    -.27259E-01    -.18465E+03    -.19008E+02     .18173E+00         .000      .000
    .990     .76677E-02    -.27579E-01    -.16866E+03    -.18580E+02     .30380E+00         .000      .000
   1.000     .12070E-01    -.25601E-01    -.15694E+03    -.25141E+01     .59092E+00         .000      .000
   1.010     .19460E-01    -.21964E-01    -.15919E+03     .17662E+02     .86483E+00         .000      .000
   1.020     .28787E-01    -.16800E-01    -.16221E+03     .26320E+02     .96046E+00         .000      .000
   1.030     .37884E-01    -.98576E-02    -.14487E+03     .16079E+02     .82056E+00         .000      .000
   1.040     .44398E-01    -.92636E-03    -.93683E+02    -.65583E+01     .44529E+00         .000      .000
   1.050     .46061E-01     .96905E-02    -.15327E+02    -.25602E+02    -.14273E+00         .000      .000
   1.060     .41330E-01     .21122E-01     .70719E+02    -.28849E+02    -.79259E+00         .000      .000
   1.070     .30847E-01     .32221E-01     .15399E+03    -.17693E+02    -.12541E+01         .000      .000
   1.080     .17239E-01     .41637E-01     .23471E+03    -.21126E+01    -.14221E+01         .000      .000
   1.090     .31214E-02     .47745E-01     .30152E+03     .10669E+02    -.13768E+01         .000      .000
   1.100    -.10011E-01     .49111E-01     .33185E+03     .17452E+02    -.12464E+01         .000      .000
   1.110    -.21794E-01     .45253E-01     .31934E+03     .15245E+02    -.11129E+01         .000      .000
   1.120    -.32317E-01     .36729E-01     .27815E+03     .41577E+01    -.99291E+00         .000      .000
   1.130    -.41714E-01     .24572E-01     .22195E+03    -.89749E+01    -.88833E+00         .000      .000
   1.140    -.50216E-01     .97924E-02     .15082E+03    -.14373E+02    -.82051E+00         .000      .000
   1.150    -.58225E-01    -.66478E-02     .59427E+02    -.79156E+01    -.78315E+00         .000      .000
   1.160    -.65740E-01    -.23610E-01    -.46480E+02     .45818E+01    -.70745E+00         .000      .000
   1.170    -.72095E-01    -.39772E-01    -.14773E+03     .13096E+02    -.55109E+00         .000      .000
   1.180    -.76551E-01    -.53946E-01    -.22932E+03     .13314E+02    -.33143E+00         .000      .000
   1.190    -.78587E-01    -.65249E-01    -.29123E+03     .85811E+01    -.69109E-01         .000      .000
   1.200    -.77686E-01    -.72963E-01    -.33703E+03     .38222E+01     .26859E+00         .000      .000
   1.210    -.72838E-01    -.76474E-01    -.36411E+03     .15084E+01     .71992E+00         .000      .000
   1.220    -.63011E-01    -.75469E-01    -.36937E+03     .24321E+01     .12542E+01         .000      .000
   1.230    -.47593E-01    -.70060E-01    -.35718E+03     .64159E+01     .18360E+01         .000      .000
   1.240    -.26375E-01    -.60592E-01    -.33272E+03     .10718E+02     .23911E+01         .000      .000
   1.250    -.37866E-03    -.47443E-01    -.29516E+03     .11560E+02     .27634E+01         .000      .000
   1.260     .27893E-01    -.31000E-01    -.24278E+03     .73737E+01     .28363E+01         .000      .000
   1.270     .55527E-01    -.11634E-01    -.17107E+03    -.15738E+01     .26640E+01         .000      .000
   1.280     .80865E-01     .10146E-01    -.72097E+02    -.12878E+02     .24011E+01         .000      .000
   1.290     .10358E+00     .33278E-01     .50989E+02    -.20319E+02     .21501E+01         .000      .000
   1.300     .12406E+00     .56021E-01     .17490E+03    -.17569E+02     .19582E+01         .000      .000
   1.310     .14283E+00     .76495E-01     .27489E+03    -.61193E+01     .17910E+01         .000      .000
   1.320     .15943E+00     .93273E-01     .34394E+03     .47481E+01     .14863E+01         .000      .000
   1.330     .17202E+00     .10558E+00     .38808E+03     .61949E+01     .10185E+01         .000      .000
   1.340     .17974E+00     .11324E+00     .41947E+03    -.44520E+01     .53151E+00         .000      .000
   1.350     .18264E+00     .11629E+00     .44778E+03    -.20367E+02     .44045E-01         .000      .000
   1.360     .18050E+00     .11450E+00     .45743E+03    -.27312E+02    -.47357E+00         .000      .000
   1.370     .17329E+00     .10770E+00     .42521E+03    -.19156E+02    -.95416E+00         .000      .000
   1.380     .16184E+00     .96361E-01     .35803E+03    -.50840E+01    -.13124E+01         .000      .000
   1.390     .14750E+00     .81390E-01     .27913E+03     .35457E+01    -.15364E+01         .000      .000
   1.400     .13155E+00     .63644E-01     .19621E+03     .43754E+01    -.16306E+01         .000      .000
   1.410     .11533E+00     .44012E-01     .10461E+03     .12491E+01    -.15921E+01         .000      .000
   1.420     .99930E-01     .23637E-01     .41005E+01    -.16313E+01    -.14850E+01         .000      .000
   1.430     .85657E-01     .38621E-02    -.99917E+02    -.18158E+01    -.13686E+01         .000      .000
   1.440     .72655E-01    -.13903E-01    -.19753E+03     .74714E-02    -.12238E+01         .000      .000
   1.450     .61358E-01    -.28359E-01    -.27398E+03     .13529E+01    -.10262E+01         .000      .000
   1.460     .52328E-01    -.38644E-01    -.32168E+03     .21073E+01    -.76869E+00         .000      .000
   1.470     .46194E-01    -.44416E-01    -.34494E+03     .38144E+01    -.44788E+00         .000      .000
   1.480     .43442E-01    -.45624E-01    -.34830E+03     .61415E+01    -.10634E+00         .000      .000
   1.490     .43801E-01    -.42380E-01    -.33162E+03     .72686E+01     .15482E+00         .000      .000
   1.500     .46090E-01    -.34954E-01    -.29379E+03     .57700E+01     .28136E+00         .000      .000
   1.510     .49127E-01    -.23767E-01    -.23206E+03     .10494E+01     .31759E+00         .000      .000
   1.520     .52243E-01    -.95171E-02    -.14431E+03    -.53154E+01     .29530E+00         .000      .000
   1.530     .54779E-01     .66264E-02    -.39542E+02    -.88443E+01     .19863E+00         .000      .000
   1.540     .55882E-01     .23163E-01     .64278E+02    -.67028E+01     .19527E-02         .000      .000
   1.550     .54428E-01     .38682E-01     .15730E+03    -.19240E+01    -.31352E+00         .000      .000
   1.560     .49266E-01     .52039E-01     .24122E+03    -.60313E-01    -.73394E+00         .000      .000
   1.570     .39601E-01     .62261E-01     .31873E+03    -.33871E+01    -.11987E+01         .000      .000
   1.580     .25430E-01     .68423E-01     .38558E+03    -.90249E+01    -.16203E+01         .000      .000
   1.590     .74653E-02     .69659E-01     .43036E+03    -.11647E+02    -.19590E+01         .000      .000
   1.600    -.13422E-01     .65306E-01     .43979E+03    -.80442E+01    -.21994E+01         .000      .000
   1.610    -.35815E-01     .55164E-01     .40801E+03    -.38366E+00    -.22297E+01         .000      .000
   1.620    -.57015E-01     .39622E-01     .34213E+03     .57425E+01    -.19620E+01         .000      .000
   1.630    -.74414E-01     .19432E-01     .24933E+03     .84687E+01    -.15016E+01         .000      .000
   1.640    -.86849E-01    -.44139E-02     .12319E+03     .10916E+02    -.98084E+00         .000      .000
   1.650    -.94030E-01    -.30290E-01    -.35996E+02     .13133E+02    -.46105E+00         .000      .000
   1.660    -.96235E-01    -.55824E-01    -.20352E+03     .11315E+02     .83514E-02         .000      .000
   1.670    -.94191E-01    -.78519E-01    -.35246E+03     .56306E+01     .38063E+00         .000      .000
   1.680    -.89090E-01    -.96305E-01    -.47097E+03     .79188E+00     .61455E+00         .000      .000
   1.690    -.82302E-01    -.10764E+00    -.55452E+03     .21183E+00     .72831E+00         .000      .000
   1.700    -.74623E-01    -.11148E+00    -.59572E+03     .26888E+01     .81100E+00         .000      .000
   1.710    -.65847E-01    -.10740E+00    -.58527E+03     .47768E+01     .96305E+00         .000      .000
   1.720    -.54887E-01    -.95815E-01    -.52312E+03     .53184E+01     .12578E+01         .000      .000
   1.730    -.40363E-01    -.77920E-01    -.42328E+03     .59051E+01     .16515E+01         .000      .000
   1.740    -.21914E-01    -.55393E-01    -.30573E+03     .77330E+01     .20282E+01         .000      .000
   1.750     .83800E-04    -.29910E-01    -.18423E+03     .87456E+01     .23686E+01         .000      .000
   1.760     .25243E-01    -.28980E-02    -.57787E+02     .49238E+01     .26433E+01         .000      .000
   1.770     .52270E-01     .24233E-01     .74614E+02    -.29153E+01     .27158E+01         .000      .000
   1.780     .78723E-01     .49921E-01     .19791E+03    -.90227E+01     .25397E+01         .000      .000
   1.790     .10244E+00     .72834E-01     .30034E+03    -.11557E+02     .21757E+01         .000      .000
   1.800     .12166E+00     .92033E-01     .38679E+03    -.13038E+02     .16373E+01         .000      .000
   1.810     .13478E+00     .10665E+00     .45805E+03    -.13829E+02     .97636E+00         .000      .000
   1.820     .14117E+00     .11587E+00     .50672E+03    -.13371E+02     .31181E+00         .000      .000
   1.830     .14124E+00     .11917E+00     .53016E+03    -.12317E+02    -.28299E+00         .000      .000
