


 TIME HISTORY FOR STORY NO.  3



    TIME   DISPLACEMENT    STORY DRIFT    STORY SHEAR   ACCELERATION     VELOCITY          DAMAGE    DAMAGE
                                                                                          BEAM-SLAB  COL-WALL

    .000     .00000E+00     .00000E+00     .00000E+00     .00000E+00     .00000E+00         .000      .000
    .010    -.18762E-05     .37915E-07     .14245E-01    -.31270E-02    -.29509E-04         .000      .000
    .020    -.53686E-06    -.55592E-06    -.10805E-01     .71503E-02    -.64265E-04         .000      .000
    .030    -.30422E-05    -.58250E-06    -.38716E-02    -.42152E-02    -.74615E-04         .000      .000
    .040    -.23600E-05    -.89283E-06     .18528E-02     .34288E-02    -.16685E-03         .000      .000
    .050    -.64246E-05    -.12927E-05     .30015E-02    -.30087E-02    -.29077E-03         .000      .000
    .060    -.86109E-05    -.22568E-05     .48039E-02     .56073E-02    -.52808E-03         .000      .000
    .070    -.16880E-04    -.36573E-05     .11007E-01     .19524E-03    -.74972E-03         .000      .000
    .080    -.23801E-04    -.63862E-05     .18061E-03     .12438E-01    -.10133E-02         .000      .000
    .090    -.36974E-04    -.10132E-04    -.21467E-01     .91987E-02    -.12429E-02         .000      .000
    .100    -.48911E-04    -.15305E-04    -.53892E-01     .21340E-01    -.15308E-02         .000      .000
    .110    -.67430E-04    -.21427E-04    -.86636E-01     .18004E-01    -.17878E-02         .000      .000
    .120    -.84902E-04    -.28983E-04    -.12729E+00     .31890E-01    -.20977E-02         .000      .000
    .130    -.10912E-03    -.37501E-04    -.16468E+00     .30098E-01    -.23472E-02         .000      .000
    .140    -.13182E-03    -.47531E-04    -.20759E+00     .45127E-01    -.25720E-02         .000      .000
    .150    -.15813E-03    -.58689E-04    -.26044E+00     .45858E-01    -.20820E-02         .000      .000
    .160    -.17252E-03    -.70982E-04    -.38517E+00     .67582E-01    -.12966E-02         .000      .000
    .170    -.18760E-03    -.80688E-04    -.44845E+00     .39279E-01    -.16025E-02         .000      .000
    .180    -.20953E-03    -.87446E-04    -.28344E+00     .66273E-02    -.33561E-02         .000      .000
    .190    -.25686E-03    -.97217E-04    -.61309E-01     .16419E-02    -.57540E-02         .000      .000
    .200    -.32419E-03    -.11730E-03    -.18517E-01     .58736E-01    -.80217E-02         .000      .000
    .210    -.41369E-03    -.14922E-03    -.16615E+00     .10235E+00    -.92376E-02         .000      .000
    .220    -.50481E-03    -.19226E-03    -.49599E+00     .14740E+00    -.91997E-02         .000      .000
    .230    -.59584E-03    -.24148E-03    -.94994E+00     .15200E+00    -.86319E-02         .000      .000
    .240    -.67801E-03    -.29039E-03    -.13398E+01     .14803E+00    -.82076E-02         .000      .000
    .250    -.76017E-03    -.33405E-03    -.15466E+01     .13335E+00    -.78452E-02         .000      .000
    .260    -.83172E-03    -.37210E-03    -.16057E+01     .15328E+00    -.65093E-02         .000      .000
    .270    -.88037E-03    -.40499E-03    -.16609E+01     .17477E+00    -.22020E-02         .000      .000
    .280    -.86775E-03    -.43039E-03    -.18579E+01     .18694E+00     .44960E-02         .000      .000
    .290    -.79056E-03    -.43739E-03    -.19214E+01     .74319E-01     .11126E-01         .000      .000
    .300    -.65319E-03    -.41832E-03    -.15378E+01    -.10085E+00     .15424E-01         .000      .000
    .310    -.49793E-03    -.37461E-03    -.72966E+00    -.28132E+00     .14977E-01         .000      .000
    .320    -.37018E-03    -.31640E-03     .46768E+00    -.40281E+00     .96031E-02         .000      .000
    .330    -.30994E-03    -.26359E-03     .17062E+01    -.42854E+00     .30156E-02         .000      .000
    .340    -.29717E-03    -.23909E-03     .22140E+01    -.30804E+00     .23567E-03         .000      .000
    .350    -.27194E-03    -.24700E-03     .15202E+01    -.15655E+00     .73780E-02         .000      .000
    .360    -.11329E-03    -.26328E-03    -.36506E+00    -.49101E-01     .25370E-01         .000      .000
    .370     .23088E-03    -.23101E-03    -.22971E+01    -.22815E+00     .41890E-01         .000      .000
    .380     .65867E-03    -.93469E-04    -.18639E+01    -.77445E+00     .38738E-01         .000      .000
    .390     .92086E-03     .13686E-03     .20454E+01    -.13059E+01     .10393E-01         .000      .000
    .400     .82966E-03     .35252E-03     .71078E+01    -.11566E+01    -.28825E-01         .000      .000
    .410     .38543E-03     .42507E-03     .94315E+01    -.26652E+00    -.55872E-01         .000      .000
    .420    -.22407E-03     .30077E-03     .70308E+01     .75627E+00    -.64113E-01         .000      .000
    .430    -.86105E-03     .31282E-04     .16820E+01     .11270E+01    -.61781E-01         .000      .000
    .440    -.14626E-02    -.29740E-03    -.40930E+01     .10504E+01    -.60107E-01         .000      .000
    .450    -.20984E-02    -.61197E-03    -.87654E+01     .10044E+01    -.68867E-01         .000      .000
    .460    -.28673E-02    -.86896E-03    -.10759E+02     .12389E+01    -.85776E-01         .000      .000
    .470    -.37944E-02    -.10869E-02    -.10225E+02     .18081E+01    -.96872E-01         .000      .000
    .480    -.47485E-02    -.13314E-02    -.95141E+01     .25659E+01    -.91213E-01         .000      .000
    .490    -.55530E-02    -.16448E-02    -.10375E+02     .30016E+01    -.66037E-01         .000      .000
    .500    -.60035E-02    -.20144E-02    -.13100E+02     .29382E+01    -.21141E-01         .000      .000
    .510    -.59440E-02    -.23688E-02    -.17169E+02     .24268E+01     .33270E-01         .000      .000
    .520    -.53761E-02    -.25814E-02    -.19636E+02     .13711E+01     .76260E-01         .000      .000
    .530    -.45082E-02    -.25516E-02    -.16689E+02    -.95058E-01     .92623E-01         .000      .000
    .540    -.36184E-02    -.23053E-02    -.81291E+01    -.13142E+01     .80825E-01         .000      .000
    .550    -.29304E-02    -.19825E-02     .25710E+01    -.18928E+01     .57449E-01         .000      .000
    .560    -.24160E-02    -.17513E-02     .10445E+02    -.18139E+01     .50010E-01         .000      .000
    .570    -.18413E-02    -.16929E-02     .11812E+02    -.16277E+01     .68915E-01         .000      .000
    .580    -.10165E-02    -.17314E-02     .80761E+01    -.21502E+01     .93966E-01         .000      .000
    .590    -.38089E-04    -.17021E-02     .46709E+01    -.35018E+01     .96410E-01         .000      .000
    .600     .74650E-03    -.15047E-02     .54042E+01    -.47113E+01     .49729E-01         .000      .000
    .610     .75975E-03    -.11712E-02     .11638E+02    -.50938E+01    -.55754E-01         .000      .000
    .620    -.48792E-03    -.90240E-03     .21255E+02    -.41175E+01    -.19681E+00         .000      .000
    .630    -.31675E-02    -.10201E-02     .27033E+02    -.16342E+01    -.33528E+00         .000      .000
    .640    -.70591E-02    -.17877E-02     .21940E+02     .17046E+01    -.43378E+00         .000      .000
    .650    -.11591E-01    -.32585E-02     .32969E+01     .50725E+01    -.45689E+00         .000      .000
    .660    -.15915E-01    -.52210E-02    -.27062E+02     .79589E+01    -.39576E+00         .000      .000
    .670    -.19159E-01    -.72111E-02    -.60690E+02     .96330E+01    -.23071E+00         .000      .000
    .680    -.20188E-01    -.86806E-02    -.89835E+02     .10419E+02     .36647E-01         .000      .000
    .690    -.18407E-01    -.90537E-02    -.10435E+03     .88262E+01     .30886E+00         .000      .000
    .700    -.14360E-01    -.79468E-02    -.88118E+02     .36468E+01     .47661E+00         .000      .000
    .710    -.92885E-02    -.56347E-02    -.41971E+02    -.20794E+01     .52192E+00         .000      .000
    .720    -.41699E-02    -.29664E-02     .10397E+02    -.47777E+01     .49345E+00         .000      .000
    .730     .44103E-03    -.71254E-03     .48611E+02    -.55679E+01     .42210E+00         .000      .000
    .740     .41695E-02     .76604E-03     .69516E+02    -.72162E+01     .31953E+00         .000      .000
    .750     .68048E-02     .13639E-02     .73177E+02    -.92865E+01     .20962E+00         .000      .000
    .760     .85323E-02     .11967E-02     .57678E+02    -.97099E+01     .15132E+00         .000      .000
    .770     .10114E-01     .72916E-03     .27406E+02    -.82291E+01     .17713E+00         .000      .000
    .780     .12155E-01     .72717E-03     .36358E+00    -.76331E+01     .22595E+00         .000      .000
    .790     .14372E-01     .17817E-02    -.15681E+01    -.95159E+01     .19709E+00         .000      .000
    .800     .15720E-01     .37613E-02     .24442E+02    -.11149E+02     .56772E-01         .000      .000
    .810     .15361E-01     .58545E-02     .57569E+02    -.88188E+01    -.12685E+00         .000      .000
    .820     .13347E-01     .71879E-02     .72963E+02    -.27886E+01    -.26224E+00         .000      .000
    .830     .10398E-01     .73791E-02     .61656E+02     .30677E+01    -.31462E+00         .000      .000
    .840     .71555E-02     .65898E-02     .30557E+02     .60235E+01    -.33727E+00         .000      .000
    .850     .35181E-02     .52679E-02    -.55269E+01     .65884E+01    -.39936E+00         .000      .000
    .860    -.10015E-02     .38013E-02    -.34846E+02     .79367E+01    -.51119E+00         .000      .000
    .870    -.67359E-02     .23535E-02    -.53375E+02     .11845E+02    -.63206E+00         .000      .000
    .880    -.13458E-01     .87144E-03    -.61645E+02     .17193E+02    -.69814E+00         .000      .000
    .890    -.20313E-01    -.86842E-03    -.66288E+02     .22055E+02    -.64935E+00         .000      .000
    .900    -.25919E-01    -.30677E-02    -.78335E+02     .25206E+02    -.44344E+00         .000      .000
    .910    -.28553E-01    -.55865E-02    -.10396E+03     .25782E+02    -.49301E-01         .000      .000
    .920    -.26322E-01    -.77555E-02    -.13802E+03     .22986E+02     .51925E+00         .000      .000
    .930    -.18034E-01    -.84467E-02    -.16036E+03     .15079E+02     .11272E+01         .000      .000
    .940    -.45566E-02    -.65529E-02    -.13867E+03     .76212E+00     .15017E+01         .000      .000
    .950     .10508E-01    -.18626E-02    -.48659E+02    -.17239E+02     .14313E+01         .000      .000
    .960     .22788E-01     .42332E-02     .90093E+02    -.29994E+02     .98033E+00         .000      .000
    .970     .29967E-01     .92839E-02     .21308E+03    -.30817E+02     .48570E+00         .000      .000
    .980     .33428E-01     .11398E-01     .25709E+03    -.22775E+02     .26554E+00         .000      .000
    .990     .36351E-01     .10596E-01     .21234E+03    -.17483E+02     .36301E+00         .000      .000
   1.000     .40944E-01     .86296E-02     .12384E+03    -.21832E+02     .53675E+00         .000      .000
   1.010     .46181E-01     .76745E-02     .53880E+02    -.32481E+02     .44201E+00         .000      .000
   1.020     .48444E-01     .89272E-02     .46856E+02    -.39487E+02    -.50588E-01         .000      .000
   1.030     .44441E-01     .11786E-01     .97219E+02    -.33798E+02    -.75962E+00         .000      .000
   1.040     .33491E-01     .14307E-01     .15664E+03    -.15780E+02    -.13990E+01         .000      .000
   1.050     .17183E-01     .14482E-01     .17593E+03     .50589E+01    -.18261E+01         .000      .000
   1.060    -.22444E-02     .11173E-01     .13170E+03     .20654E+02    -.20190E+01         .000      .000
   1.070    -.22334E-01     .43918E-02     .18577E+02     .32141E+02    -.19521E+01         .000      .000
   1.080    -.40467E-01    -.44879E-02    -.14644E+03     .42590E+02    -.16395E+01         .000      .000
   1.090    -.54616E-01    -.12894E-01    -.30539E+03     .49422E+02    -.11760E+01         .000      .000
   1.100    -.63906E-01    -.18386E-01    -.38988E+03     .50140E+02    -.68817E+00         .000      .000
   1.110    -.68502E-01    -.20117E-01    -.37481E+03     .46991E+02    -.23564E+00         .000      .000
   1.120    -.68567E-01    -.19052E-01    -.29090E+03     .43791E+02     .23323E+00         .000      .000
   1.130    -.63598E-01    -.16921E-01    -.19253E+03     .40012E+02     .77269E+00         .000      .000
   1.140    -.53124E-01    -.14953E-01    -.11455E+03     .30482E+02     .13070E+01         .000      .000
   1.150    -.38035E-01    -.13438E-01    -.57718E+02     .12227E+02     .16688E+01         .000      .000
   1.160    -.20648E-01    -.12139E-01    -.93502E+01    -.99131E+01     .17637E+01         .000      .000
   1.170    -.35521E-02    -.10741E-01     .36781E+02    -.28005E+02     .16238E+01         .000      .000
   1.180     .11399E-01    -.89461E-02     .85737E+02    -.39366E+02     .13551E+01         .000      .000
   1.190     .23468E-01    -.66382E-02     .14175E+03    -.46124E+02     .10609E+01         .000      .000
   1.200     .32815E-01    -.40812E-02     .19704E+03    -.50451E+02     .82566E+00         .000      .000
   1.210     .40327E-01    -.17488E-02     .23088E+03    -.52375E+02     .69400E+00         .000      .000
   1.220     .46935E-01     .23234E-03     .23073E+03    -.52747E+02     .63366E+00         .000      .000
   1.230     .53058E-01     .23198E-02     .20788E+03    -.52934E+02     .59049E+00         .000      .000
   1.240     .58537E-01     .51572E-02     .18126E+03    -.51991E+02     .48550E+00         .000      .000
   1.250     .62197E-01     .91596E-02     .16837E+03    -.49065E+02     .20965E+00         .000      .000
   1.260     .62022E-01     .14124E-01     .17996E+03    -.42927E+02    -.27755E+00         .000      .000
   1.270     .56406E-01     .18950E-01     .20138E+03    -.30473E+02    -.83560E+00         .000      .000
   1.280     .45908E-01     .22098E-01     .19146E+03    -.99207E+01    -.12148E+01         .000      .000
   1.290     .33214E-01     .22755E-01     .12042E+03     .13510E+02    -.12661E+01         .000      .000
   1.300     .21559E-01     .21520E-01     .21042E+01     .31324E+02    -.10284E+01         .000      .000
   1.310     .12935E-01     .19905E-01    -.12132E+03     .40276E+02    -.70376E+00         .000      .000
   1.320     .68865E-02     .19383E-01    -.20482E+03     .43007E+02    -.55650E+00         .000      .000
   1.330     .11658E-02     .20496E-01    -.21948E+03     .45117E+02    -.59832E+00         .000      .000
   1.340    -.48294E-02     .22334E-01    -.18861E+03     .53990E+02    -.56361E+00         .000      .000
   1.350    -.92829E-02     .23539E-01    -.16324E+03     .66218E+02    -.28593E+00         .000      .000
   1.360    -.99647E-02     .23628E-01    -.15539E+03     .69209E+02     .16281E+00         .000      .000
   1.370    -.60735E-02     .22827E-01    -.15051E+03     .58996E+02     .59871E+00         .000      .000
   1.380     .15332E-02     .21488E-01    -.14310E+03     .42918E+02     .89516E+00         .000      .000
   1.390     .11345E-01     .20109E-01    -.12919E+03     .28324E+02     .10478E+01         .000      .000
   1.400     .22304E-01     .19322E-01    -.95263E+02     .16297E+02     .11444E+01         .000      .000
   1.410     .34293E-01     .19486E-01    -.34150E+02     .46140E+01     .12579E+01         .000      .000
   1.420     .47351E-01     .20493E-01     .46246E+02    -.91602E+01     .13373E+01         .000      .000
   1.430     .60605E-01     .21925E-01     .13479E+03    -.25563E+02     .12873E+01         .000      .000
   1.440     .72605E-01     .23154E-01     .21546E+03    -.40749E+02     .10915E+01         .000      .000
   1.450     .82112E-01     .23630E-01     .26882E+03    -.50881E+02     .79956E+00         .000      .000
   1.460     .88496E-01     .23279E-01     .29006E+03    -.56282E+02     .47708E+00         .000      .000
   1.470     .91684E-01     .22451E-01     .28876E+03    -.58724E+02     .16311E+00         .000      .000
   1.480     .91713E-01     .21578E-01     .27594E+03    -.58862E+02    -.16430E+00         .000      .000
   1.490     .88135E-01     .20936E-01     .26111E+03    -.56504E+02    -.57033E+00         .000      .000
   1.500     .80038E-01     .20433E-01     .24957E+03    -.50377E+02    -.10561E+01         .000      .000
   1.510     .67136E-01     .19507E-01     .23072E+03    -.38041E+02    -.15043E+01         .000      .000
   1.520     .50471E-01     .17511E-01     .18401E+03    -.19967E+02    -.17980E+01         .000      .000
   1.530     .31748E-01     .14326E-01     .10636E+03    -.14455E+01    -.19224E+01         .000      .000
   1.540     .12307E-01     .10361E-01     .15224E+02     .13391E+02    -.19623E+01         .000      .000
   1.550    -.75404E-02     .60861E-02    -.69767E+02     .25098E+02    -.20139E+01         .000      .000
   1.560    -.28016E-01     .16840E-02    -.13888E+03     .37056E+02    -.20779E+01         .000      .000
   1.570    -.48773E-01    -.29786E-02    -.19481E+03     .51194E+02    -.20445E+01         .000      .000
   1.580    -.68139E-01    -.80966E-02    -.24668E+03     .65491E+02    -.17827E+01         .000      .000
   1.590    -.83624E-01    -.13581E-01    -.29890E+03     .74891E+02    -.12820E+01         .000      .000
   1.600    -.93331E-01    -.18920E-01    -.34140E+03     .75012E+02    -.64739E+00         .000      .000
   1.610    -.96269E-01    -.23475E-01    -.36114E+03     .67165E+02     .79459E-01         .000      .000
   1.620    -.91391E-01    -.26706E-01    -.36048E+03     .56302E+02     .91245E+00         .000      .000
   1.630    -.77981E-01    -.27852E-01    -.33564E+03     .41406E+02     .17554E+01         .000      .000
   1.640    -.56799E-01    -.26047E-01    -.26053E+03     .18294E+02     .24430E+01         .000      .000
   1.650    -.30087E-01    -.21238E-01    -.12680E+03    -.10022E+02     .28437E+01         .000      .000
   1.660    -.10330E-02    -.14433E-01     .38565E+02    -.36849E+02     .29144E+01         .000      .000
   1.670     .27218E-01    -.70527E-02     .19941E+03    -.58443E+02     .26907E+01         .000      .000
   1.680     .51904E-01    -.31655E-03     .33071E+03    -.75129E+02     .22036E+01         .000      .000
   1.690     .70522E-01     .49453E-02     .42175E+03    -.87695E+02     .14867E+01         .000      .000
   1.700     .81185E-01     .81870E-02     .46454E+03    -.93596E+02     .63535E+00         .000      .000
   1.710     .83321E-01     .92144E-02     .45080E+03    -.89742E+02    -.18786E+00         .000      .000
   1.720     .78109E-01     .84207E-02     .38321E+03    -.76855E+02    -.80784E+00         .000      .000
   1.730     .67980E-01     .67837E-02     .28006E+03    -.59304E+02    -.11853E+01         .000      .000
   1.740     .54903E-01     .55208E-02     .17448E+03    -.42448E+02    -.14141E+01         .000      .000
   1.750     .40077E-01     .53549E-02     .91214E+02    -.25926E+02    -.15277E+01         .000      .000
   1.760     .24791E-01     .61823E-02     .22828E+02    -.57572E+01    -.15081E+01         .000      .000
   1.770     .10212E-01     .76839E-02    -.40492E+02     .15670E+02    -.14017E+01         .000      .000
   1.780    -.31072E-02     .96304E-02    -.89623E+02     .33051E+02    -.12558E+01         .000      .000
   1.790    -.14831E-01     .11509E-01    -.12677E+03     .46934E+02    -.10872E+01         .000      .000
   1.800    -.24889E-01     .12716E-01    -.16601E+03     .58859E+02    -.93007E+00         .000      .000
   1.810    -.33411E-01     .13014E-01    -.20632E+03     .67950E+02    -.76665E+00         .000      .000
   1.820    -.39970E-01     .12416E-01    -.24310E+03     .74541E+02    -.52727E+00         .000      .000
   1.830    -.43595E-01     .11130E-01    -.27566E+03     .77946E+02    -.18049E+00         .000      .000
