


 TIME HISTORY FOR STORY NO.  3



    TIME   DISPLACEMENT    STORY DRIFT    STORY SHEAR   ACCELERATION     VELOCITY          DAMAGE    DAMAGE
                                                                                          BEAM-SLAB  COL-WALL

    .000     .00000E+00     .00000E+00     .00000E+00     .00000E+00     .00000E+00         .000      .000
    .010    -.16677E-05     .33702E-07     .12662E-01    -.27796E-02    -.26231E-04         .000      .000
    .020    -.47721E-06    -.49415E-06    -.96041E-02     .63558E-02    -.57125E-04         .000      .000
    .030    -.27042E-05    -.51778E-06    -.34414E-02    -.37468E-02    -.66324E-04         .000      .000
    .040    -.20978E-05    -.79362E-06     .16469E-02     .30478E-02    -.14831E-03         .000      .000
    .050    -.57108E-05    -.11491E-05     .26680E-02    -.26744E-02    -.25846E-03         .000      .000
    .060    -.76541E-05    -.20060E-05     .42701E-02     .49843E-02    -.46940E-03         .000      .000
    .070    -.15004E-04    -.32509E-05     .97839E-02     .17355E-03    -.66642E-03         .000      .000
    .080    -.21156E-04    -.56767E-05     .16054E-03     .11056E-01    -.90070E-03         .000      .000
    .090    -.32865E-04    -.90062E-05    -.19082E-01     .81766E-02    -.11048E-02         .000      .000
    .100    -.43476E-04    -.13605E-04    -.47904E-01     .18969E-01    -.13607E-02         .000      .000
    .110    -.59938E-04    -.19046E-04    -.77010E-01     .16003E-01    -.15892E-02         .000      .000
    .120    -.75468E-04    -.25763E-04    -.11315E+00     .28347E-01    -.18646E-02         .000      .000
    .130    -.96999E-04    -.33334E-04    -.14638E+00     .26753E-01    -.20864E-02         .000      .000
    .140    -.11718E-03    -.42250E-04    -.18453E+00     .40113E-01    -.22862E-02         .000      .000
    .150    -.14056E-03    -.52168E-04    -.23150E+00     .40762E-01    -.18507E-02         .000      .000
    .160    -.15335E-03    -.63095E-04    -.34237E+00     .60073E-01    -.11525E-02         .000      .000
    .170    -.16675E-03    -.71723E-04    -.39862E+00     .34914E-01    -.14244E-02         .000      .000
    .180    -.18625E-03    -.77730E-04    -.25194E+00     .58909E-02    -.29832E-02         .000      .000
    .190    -.22832E-03    -.86415E-04    -.54497E-01     .14594E-02    -.51146E-02         .000      .000
    .200    -.28817E-03    -.10426E-03    -.16460E-01     .52210E-01    -.71304E-02         .000      .000
    .210    -.36772E-03    -.13264E-03    -.14769E+00     .90976E-01    -.82112E-02         .000      .000
    .220    -.44872E-03    -.17090E-03    -.44088E+00     .13102E+00    -.81776E-02         .000      .000
    .230    -.52964E-03    -.21465E-03    -.84439E+00     .13511E+00    -.76728E-02         .000      .000
    .240    -.60267E-03    -.25813E-03    -.11909E+01     .13159E+00    -.72956E-02         .000      .000
    .250    -.67571E-03    -.29693E-03    -.13748E+01     .11853E+00    -.69735E-02         .000      .000
    .260    -.73931E-03    -.33075E-03    -.14273E+01     .13625E+00    -.57861E-02         .000      .000
    .270    -.78255E-03    -.35999E-03    -.14764E+01     .15535E+00    -.19573E-02         .000      .000
    .280    -.77134E-03    -.38257E-03    -.16514E+01     .16617E+00     .39964E-02         .000      .000
    .290    -.70272E-03    -.38879E-03    -.17079E+01     .66062E-01     .98895E-02         .000      .000
    .300    -.58061E-03    -.37184E-03    -.13670E+01    -.89647E-01     .13710E-01         .000      .000
    .310    -.44260E-03    -.33298E-03    -.64858E+00    -.25006E+00     .13313E-01         .000      .000
    .320    -.32905E-03    -.28125E-03     .41571E+00    -.35805E+00     .85361E-02         .000      .000
    .330    -.27550E-03    -.23430E-03     .15166E+01    -.38093E+00     .26805E-02         .000      .000
    .340    -.26415E-03    -.21252E-03     .19680E+01    -.27382E+00     .20948E-03         .000      .000
    .350    -.24172E-03    -.21955E-03     .13512E+01    -.13916E+00     .65582E-02         .000      .000
    .360    -.10070E-03    -.23402E-03    -.32450E+00    -.43645E-01     .22551E-01         .000      .000
    .370     .20523E-03    -.20534E-03    -.20419E+01    -.20280E+00     .37236E-01         .000      .000
    .380     .58548E-03    -.83084E-04    -.16568E+01    -.68840E+00     .34434E-01         .000      .000
    .390     .81855E-03     .12166E-03     .18182E+01    -.11608E+01     .92386E-02         .000      .000
    .400     .73747E-03     .31335E-03     .63180E+01    -.10281E+01    -.25622E-01         .000      .000
    .410     .34261E-03     .37784E-03     .83836E+01    -.23691E+00    -.49664E-01         .000      .000
    .420    -.19917E-03     .26735E-03     .62496E+01     .67224E+00    -.56990E-01         .000      .000
    .430    -.76538E-03     .27806E-04     .14951E+01     .10018E+01    -.54916E-01         .000      .000
    .440    -.13001E-02    -.26435E-03    -.36382E+01     .93367E+00    -.53429E-01         .000      .000
    .450    -.18652E-02    -.54398E-03    -.77915E+01     .89281E+00    -.61215E-01         .000      .000
    .460    -.25487E-02    -.77241E-03    -.95637E+01     .11013E+01    -.76245E-01         .000      .000
    .470    -.33728E-02    -.96612E-03    -.90889E+01     .16072E+01    -.86109E-01         .000      .000
    .480    -.42209E-02    -.11835E-02    -.84570E+01     .22808E+01    -.81078E-01         .000      .000
    .490    -.49360E-02    -.14620E-02    -.92221E+01     .26681E+01    -.58700E-01         .000      .000
    .500    -.53364E-02    -.17906E-02    -.11645E+02     .26117E+01    -.18792E-01         .000      .000
    .510    -.52835E-02    -.21056E-02    -.15262E+02     .21571E+01     .29574E-01         .000      .000
    .520    -.47788E-02    -.22946E-02    -.17454E+02     .12188E+01     .67787E-01         .000      .000
    .530    -.40072E-02    -.22681E-02    -.14835E+02    -.84496E-01     .82332E-01         .000      .000
    .540    -.32164E-02    -.20491E-02    -.72259E+01    -.11682E+01     .71845E-01         .000      .000
    .550    -.26048E-02    -.17623E-02     .22853E+01    -.16825E+01     .51066E-01         .000      .000
    .560    -.21476E-02    -.15567E-02     .92845E+01    -.16124E+01     .44453E-01         .000      .000
    .570    -.16367E-02    -.15048E-02     .10499E+02    -.14468E+01     .61258E-01         .000      .000
    .580    -.90355E-03    -.15390E-02     .71788E+01    -.19113E+01     .83525E-01         .000      .000
    .590    -.33857E-04    -.15130E-02     .41520E+01    -.31127E+01     .85698E-01         .000      .000
    .600     .66356E-03    -.13375E-02     .48038E+01    -.41878E+01     .44204E-01         .000      .000
    .610     .67533E-03    -.10411E-02     .10345E+02    -.45279E+01    -.49560E-01         .000      .000
    .620    -.43371E-03    -.80213E-03     .18893E+02    -.36600E+01    -.17495E+00         .000      .000
    .630    -.28156E-02    -.90678E-03     .24029E+02    -.14527E+01    -.29802E+00         .000      .000
    .640    -.62747E-02    -.15891E-02     .19502E+02     .15152E+01    -.38558E+00         .000      .000
    .650    -.10303E-01    -.28964E-02     .29306E+01     .45089E+01    -.40613E+00         .000      .000
    .660    -.14147E-01    -.46409E-02    -.24055E+02     .70746E+01    -.35178E+00         .000      .000
    .670    -.17030E-01    -.64098E-02    -.53947E+02     .85626E+01    -.20508E+00         .000      .000
    .680    -.17945E-01    -.77161E-02    -.79853E+02     .92617E+01     .32575E-01         .000      .000
    .690    -.16362E-01    -.80477E-02    -.92753E+02     .78455E+01     .27454E+00         .000      .000
    .700    -.12765E-01    -.70639E-02    -.78327E+02     .32416E+01     .42365E+00         .000      .000
    .710    -.82564E-02    -.50086E-02    -.37307E+02    -.18483E+01     .46393E+00         .000      .000
    .720    -.37066E-02    -.26368E-02     .92421E+01    -.42468E+01     .43862E+00         .000      .000
    .730     .39202E-03    -.63337E-03     .43210E+02    -.49492E+01     .37520E+00         .000      .000
    .740     .37062E-02     .68093E-03     .61792E+02    -.64144E+01     .28402E+00         .000      .000
    .750     .60487E-02     .12124E-02     .65046E+02    -.82547E+01     .18633E+00         .000      .000
    .760     .75842E-02     .10637E-02     .51270E+02    -.86310E+01     .13450E+00         .000      .000
    .770     .89898E-02     .64814E-03     .24361E+02    -.73147E+01     .15745E+00         .000      .000
    .780     .10805E-01     .64637E-03     .32318E+00    -.67850E+01     .20084E+00         .000      .000
    .790     .12775E-01     .15837E-02    -.13939E+01    -.84586E+01     .17519E+00         .000      .000
    .800     .13973E-01     .33434E-02     .21726E+02    -.99100E+01     .50464E-01         .000      .000
    .810     .13654E-01     .52040E-02     .51172E+02    -.78389E+01    -.11276E+00         .000      .000
    .820     .11864E-01     .63892E-02     .64856E+02    -.24788E+01    -.23310E+00         .000      .000
    .830     .92424E-02     .65592E-02     .54805E+02     .27269E+01    -.27966E+00         .000      .000
    .840     .63604E-02     .58576E-02     .27162E+02     .53542E+01    -.29980E+00         .000      .000
    .850     .31272E-02     .46826E-02    -.49128E+01     .58563E+01    -.35498E+00         .000      .000
    .860    -.89022E-03     .33790E-02    -.30974E+02     .70549E+01    -.45439E+00         .000      .000
    .870    -.59874E-02     .20920E-02    -.47445E+02     .10529E+02    -.56183E+00         .000      .000
    .880    -.11962E-01     .77461E-03    -.54795E+02     .15282E+02    -.62057E+00         .000      .000
    .890    -.18056E-01    -.77193E-03    -.58923E+02     .19604E+02    -.57720E+00         .000      .000
    .900    -.23039E-01    -.27268E-02    -.69631E+02     .22406E+02    -.39417E+00         .000      .000
    .910    -.25381E-01    -.49658E-02    -.92413E+02     .22917E+02    -.43823E-01         .000      .000
    .920    -.23397E-01    -.68938E-02    -.12268E+03     .20432E+02     .46156E+00         .000      .000
    .930    -.16030E-01    -.75082E-02    -.14254E+03     .13404E+02     .10020E+01         .000      .000
    .940    -.40503E-02    -.58248E-02    -.12327E+03     .67744E+00     .13349E+01         .000      .000
    .950     .93406E-02    -.16556E-02    -.43253E+02    -.15323E+02     .12723E+01         .000      .000
    .960     .20256E-01     .37629E-02     .80083E+02    -.26662E+02     .87141E+00         .000      .000
    .970     .26637E-01     .82523E-02     .18940E+03    -.27393E+02     .43173E+00         .000      .000
    .980     .29714E-01     .10131E-01     .22853E+03    -.20244E+02     .23604E+00         .000      .000
    .990     .32312E-01     .94188E-02     .18874E+03    -.15541E+02     .32268E+00         .000      .000
   1.000     .36395E-01     .76708E-02     .11008E+03    -.19407E+02     .47712E+00         .000      .000
   1.010     .41050E-01     .68218E-02     .47893E+02    -.28872E+02     .39290E+00         .000      .000
   1.020     .43061E-01     .79353E-02     .41650E+02    -.35100E+02    -.44967E-01         .000      .000
   1.030     .39503E-01     .10476E-01     .86417E+02    -.30042E+02    -.67522E+00         .000      .000
   1.040     .29770E-01     .12717E-01     .13923E+03    -.14027E+02    -.12435E+01         .000      .000
   1.050     .15274E-01     .12873E-01     .15638E+03     .44968E+01    -.16232E+01         .000      .000
   1.060    -.19950E-02     .99319E-02     .11706E+03     .18359E+02    -.17946E+01         .000      .000
   1.070    -.19853E-01     .39038E-02     .16513E+02     .28570E+02    -.17352E+01         .000      .000
   1.080    -.35971E-01    -.39893E-02    -.13017E+03     .37858E+02    -.14574E+01         .000      .000
   1.090    -.48548E-01    -.11462E-01    -.27146E+03     .43931E+02    -.10453E+01         .000      .000
   1.100    -.56805E-01    -.16343E-01    -.34656E+03     .44569E+02    -.61171E+00         .000      .000
   1.110    -.60891E-01    -.17881E-01    -.33316E+03     .41769E+02    -.20946E+00         .000      .000
   1.120    -.60948E-01    -.16936E-01    -.25858E+03     .38925E+02     .20732E+00         .000      .000
   1.130    -.56531E-01    -.15041E-01    -.17114E+03     .35566E+02     .68684E+00         .000      .000
   1.140    -.47221E-01    -.13291E-01    -.10182E+03     .27095E+02     .11617E+01         .000      .000
   1.150    -.33809E-01    -.11945E-01    -.51305E+02     .10869E+02     .14834E+01         .000      .000
   1.160    -.18354E-01    -.10791E-01    -.83113E+01    -.88117E+01     .15677E+01         .000      .000
   1.170    -.31574E-02    -.95476E-02     .32694E+02    -.24893E+02     .14434E+01         .000      .000
   1.180     .10132E-01    -.79521E-02     .76211E+02    -.34992E+02     .12045E+01         .000      .000
   1.190     .20861E-01    -.59006E-02     .12600E+03    -.40999E+02     .94306E+00         .000      .000
   1.200     .29169E-01    -.36277E-02     .17515E+03    -.44845E+02     .73392E+00         .000      .000
   1.210     .35846E-01    -.15545E-02     .20523E+03    -.46556E+02     .61689E+00         .000      .000
   1.220     .41720E-01     .20652E-03     .20509E+03    -.46886E+02     .56325E+00         .000      .000
   1.230     .47163E-01     .20621E-02     .18478E+03    -.47053E+02     .52488E+00         .000      .000
   1.240     .52033E-01     .45842E-02     .16112E+03    -.46214E+02     .43155E+00         .000      .000
   1.250     .55286E-01     .81419E-02     .14966E+03    -.43613E+02     .18636E+00         .000      .000
   1.260     .55130E-01     .12554E-01     .15996E+03    -.38158E+02    -.24671E+00         .000      .000
   1.270     .50138E-01     .16844E-01     .17900E+03    -.27087E+02    -.74275E+00         .000      .000
   1.280     .40807E-01     .19642E-01     .17018E+03    -.88184E+01    -.10798E+01         .000      .000
   1.290     .29523E-01     .20227E-01     .10704E+03     .12009E+02    -.11254E+01         .000      .000
   1.300     .19163E-01     .19129E-01     .18704E+01     .27844E+02    -.91414E+00         .000      .000
   1.310     .11498E-01     .17693E-01    -.10784E+03     .35801E+02    -.62557E+00         .000      .000
   1.320     .61213E-02     .17229E-01    -.18206E+03     .38228E+02    -.49467E+00         .000      .000
   1.330     .10363E-02     .18218E-01    -.19509E+03     .40104E+02    -.53184E+00         .000      .000
   1.340    -.42928E-02     .19852E-01    -.16765E+03     .47991E+02    -.50099E+00         .000      .000
   1.350    -.82514E-02     .20923E-01    -.14510E+03     .58860E+02    -.25416E+00         .000      .000
   1.360    -.88575E-02     .21003E-01    -.13813E+03     .61519E+02     .14472E+00         .000      .000
   1.370    -.53986E-02     .20291E-01    -.13378E+03     .52441E+02     .53218E+00         .000      .000
   1.380     .13629E-02     .19101E-01    -.12720E+03     .38149E+02     .79570E+00         .000      .000
   1.390     .10085E-01     .17875E-01    -.11483E+03     .25177E+02     .93139E+00         .000      .000
   1.400     .19826E-01     .17175E-01    -.84678E+02     .14486E+02     .10173E+01         .000      .000
   1.410     .30483E-01     .17321E-01    -.30356E+02     .41013E+01     .11182E+01         .000      .000
   1.420     .42090E-01     .18216E-01     .41107E+02    -.81424E+01     .11887E+01         .000      .000
   1.430     .53871E-01     .19489E-01     .11981E+03    -.22723E+02     .11442E+01         .000      .000
   1.440     .64537E-01     .20581E-01     .19152E+03    -.36222E+02     .97023E+00         .000      .000
   1.450     .72989E-01     .21004E-01     .23895E+03    -.45228E+02     .71072E+00         .000      .000
   1.460     .78663E-01     .20692E-01     .25783E+03    -.50028E+02     .42407E+00         .000      .000
   1.470     .81497E-01     .19956E-01     .25668E+03    -.52199E+02     .14498E+00         .000      .000
   1.480     .81523E-01     .19181E-01     .24528E+03    -.52322E+02    -.14605E+00         .000      .000
   1.490     .78342E-01     .18609E-01     .23210E+03    -.50226E+02    -.50696E+00         .000      .000
   1.500     .71145E-01     .18163E-01     .22184E+03    -.44780E+02    -.93872E+00         .000      .000
   1.510     .59677E-01     .17340E-01     .20508E+03    -.33814E+02    -.13372E+01         .000      .000
   1.520     .44864E-01     .15565E-01     .16356E+03    -.17748E+02    -.15982E+01         .000      .000
   1.530     .28221E-01     .12735E-01     .94541E+02    -.12849E+01    -.17088E+01         .000      .000
   1.540     .10940E-01     .92100E-02     .13532E+02     .11903E+02    -.17443E+01         .000      .000
   1.550    -.67025E-02     .54099E-02    -.62015E+02     .22310E+02    -.17901E+01         .000      .000
   1.560    -.24903E-01     .14969E-02    -.12345E+03     .32939E+02    -.18470E+01         .000      .000
   1.570    -.43354E-01    -.26476E-02    -.17317E+03     .45506E+02    -.18173E+01         .000      .000
   1.580    -.60568E-01    -.71970E-02    -.21927E+03     .58214E+02    -.15846E+01         .000      .000
   1.590    -.74332E-01    -.12072E-01    -.26569E+03     .66570E+02    -.11396E+01         .000      .000
   1.600    -.82961E-01    -.16818E-01    -.30347E+03     .66677E+02    -.57546E+00         .000      .000
   1.610    -.85573E-01    -.20867E-01    -.32101E+03     .59702E+02     .70630E-01         .000      .000
   1.620    -.81236E-01    -.23739E-01    -.32043E+03     .50046E+02     .81107E+00         .000      .000
   1.630    -.69317E-01    -.24758E-01    -.29835E+03     .36806E+02     .15604E+01         .000      .000
   1.640    -.50488E-01    -.23153E-01    -.23158E+03     .16262E+02     .21716E+01         .000      .000
   1.650    -.26744E-01    -.18878E-01    -.11271E+03    -.89084E+01     .25277E+01         .000      .000
   1.660    -.91819E-03    -.12829E-01     .34280E+02    -.32755E+02     .25906E+01         .000      .000
   1.670     .24194E-01    -.62691E-02     .17725E+03    -.51949E+02     .23918E+01         .000      .000
   1.680     .46137E-01    -.28138E-03     .29396E+03    -.66782E+02     .19587E+01         .000      .000
   1.690     .62686E-01     .43958E-02     .37489E+03    -.77951E+02     .13215E+01         .000      .000
   1.700     .72164E-01     .72773E-02     .41293E+03    -.83196E+02     .56475E+00         .000      .000
   1.710     .74063E-01     .81906E-02     .40071E+03    -.79771E+02    -.16699E+00         .000      .000
   1.720     .69430E-01     .74850E-02     .34064E+03    -.68316E+02    -.71808E+00         .000      .000
   1.730     .60427E-01     .60300E-02     .24894E+03    -.52715E+02    -.10536E+01         .000      .000
   1.740     .48803E-01     .49074E-02     .15510E+03    -.37732E+02    -.12570E+01         .000      .000
   1.750     .35624E-01     .47599E-02     .81079E+02    -.23045E+02    -.13580E+01         .000      .000
   1.760     .22037E-01     .54954E-02     .20292E+02    -.51175E+01    -.13405E+01         .000      .000
   1.770     .90773E-02     .68301E-02    -.35993E+02     .13929E+02    -.12459E+01         .000      .000
   1.780    -.27619E-02     .85604E-02    -.79665E+02     .29379E+02    -.11162E+01         .000      .000
   1.790    -.13183E-01     .10230E-01    -.11268E+03     .41719E+02    -.96642E+00         .000      .000
   1.800    -.22124E-01     .11303E-01    -.14756E+03     .52319E+02    -.82672E+00         .000      .000
   1.810    -.29698E-01     .11568E-01    -.18340E+03     .60400E+02    -.68146E+00         .000      .000
   1.820    -.35528E-01     .11036E-01    -.21609E+03     .66259E+02    -.46868E+00         .000      .000
   1.830    -.38751E-01     .98936E-02    -.24503E+03     .69286E+02    -.16044E+00         .000      .000
