


 TIME HISTORY FOR STORY NO.  3



    TIME   DISPLACEMENT    STORY DRIFT    STORY SHEAR   ACCELERATION     VELOCITY          DAMAGE    DAMAGE
                                                                                          BEAM-SLAB  COL-WALL

    .000     .00000E+00     .00000E+00     .00000E+00     .00000E+00     .00000E+00         .000      .000
    .010    -.33476E-05     .69042E-07     .17431E-01    -.46922E-02    -.64732E-03         .000      .000
    .020    -.13368E-04    -.60333E-06     .75038E-01    -.67565E-02    -.14291E-02         .000      .000
    .030    -.31894E-04    -.42064E-05     .95111E-01     .58707E-02    -.22018E-02         .000      .000
    .040    -.56894E-04    -.11874E-04     .39193E-01     .26982E-01    -.28253E-02         .000      .000
    .050    -.87555E-04    -.23019E-04    -.56379E-01     .39908E-01    -.31992E-02         .000      .000
    .060    -.11970E-03    -.36970E-04    -.18168E+00     .52391E-01    -.32147E-02         .000      .000
    .070    -.15084E-03    -.52446E-04    -.33745E+00     .62394E-01    -.29325E-02         .000      .000
    .080    -.17799E-03    -.67304E-04    -.47205E+00     .67796E-01    -.25436E-02         .000      .000
    .090    -.20223E-03    -.79730E-04    -.52680E+00     .63264E-01    -.23106E-02         .000      .000
    .100    -.22635E-03    -.89753E-04    -.48391E+00     .55415E-01    -.27168E-02         .000      .000
    .110    -.25872E-03    -.99372E-04    -.34989E+00     .45167E-01    -.37658E-02         .000      .000
    .120    -.30151E-03    -.11298E-03    -.22818E+00     .55281E-01    -.47597E-02         .000      .000
    .130    -.35142E-03    -.13418E-03    -.26441E+00     .81968E-01    -.50137E-02         .000      .000
    .140    -.39978E-03    -.16222E-03    -.46786E+00     .10102E+00    -.46782E-02         .000      .000
    .150    -.44322E-03    -.19264E-03    -.69925E+00     .88206E-01    -.38157E-02         .000      .000
    .160    -.47392E-03    -.22162E-03    -.91169E+00     .74464E-01    -.22889E-02         .000      .000
    .170    -.48844E-03    -.24496E-03    -.10881E+01     .59058E-01    -.60538E-03         .000      .000
    .180    -.48666E-03    -.25801E-03    -.10757E+01     .26135E-01     .88946E-03         .000      .000
    .190    -.47124E-03    -.26026E-03    -.84683E+00    -.13876E-01     .22146E-02         .000      .000
    .200    -.44000E-03    -.25531E-03    -.55018E+00    -.41008E-01     .42562E-02         .000      .000
    .210    -.38122E-03    -.24614E-03    -.38546E+00    -.55169E-01     .77552E-02         .000      .000
    .220    -.28308E-03    -.22984E-03    -.35673E+00    -.97731E-01     .11779E-01         .000      .000
    .230    -.15092E-03    -.19909E-03    -.19901E+00    -.20522E+00     .14218E-01         .000      .000
    .240    -.13325E-04    -.15090E-03     .30981E+00    -.34121E+00     .12300E-01         .000      .000
    .250     .83734E-04    -.92546E-04     .11931E+01    -.43550E+00     .70152E-02         .000      .000
    .260     .12265E-03    -.42659E-04     .19328E+01    -.38111E+00     .44752E-03         .000      .000
    .270     .88470E-04    -.14963E-04     .22092E+01    -.27151E+00    -.74399E-02         .000      .000
    .280    -.25879E-04    -.16009E-04     .21877E+01    -.17872E+00    -.15235E-01         .000      .000
    .290    -.21230E-03    -.54003E-04     .16065E+01    -.34728E-01    -.21832E-01         .000      .000
    .300    -.45284E-03    -.12797E-03     .34033E+00     .15764E+00    -.25541E-01         .000      .000
    .310    -.70658E-03    -.22404E-03    -.13675E+01     .37222E+00    -.24303E-01         .000      .000
    .320    -.92835E-03    -.31976E-03    -.31254E+01     .54218E+00    -.19939E-01         .000      .000
    .330    -.11115E-02    -.39068E-03    -.41659E+01     .56713E+00    -.17430E-01         .000      .000
    .340    -.12887E-02    -.43067E-03    -.39803E+01     .51007E+00    -.18367E-01         .000      .000
    .350    -.14843E-02    -.46231E-03    -.31996E+01     .56225E+00    -.20894E-01         .000      .000
    .360    -.17150E-02    -.51302E-03    -.26352E+01     .69298E+00    -.26027E-01         .000      .000
    .370    -.20035E-02    -.59867E-03    -.22089E+01     .74273E+00    -.30771E-01         .000      .000
    .380    -.23038E-02    -.73761E-03    -.25689E+01     .85496E+00    -.27478E-01         .000      .000
    .390    -.25145E-02    -.92556E-03    -.46056E+01     .10150E+01    -.12706E-01         .000      .000
    .400    -.25265E-02    -.11076E-02    -.73603E+01     .95217E+00     .11408E-01         .000      .000
    .410    -.22781E-02    -.12086E-02    -.90020E+01     .55341E+00     .38002E-01         .000      .000
    .420    -.17901E-02    -.11771E-02    -.82988E+01    -.66570E-01     .57572E-01         .000      .000
    .430    -.11768E-02    -.10063E-02    -.48209E+01    -.73600E+00     .62175E-01         .000      .000
    .440    -.61580E-03    -.74367E-03     .90849E+00    -.12853E+01     .46089E-01         .000      .000
    .450    -.31393E-03    -.48441E-03     .74850E+01    -.16095E+01     .12398E-01         .000      .000
    .460    -.40076E-03    -.35080E-03     .12291E+02    -.15118E+01    -.31116E-01         .000      .000
    .470    -.96235E-03    -.43359E-03     .13292E+02    -.11155E+01    -.82557E-01         .000      .000
    .480    -.20481E-02    -.76164E-03     .10718E+02    -.59680E+00    -.13282E+00         .000      .000
    .490    -.35615E-02    -.13284E-02     .43733E+01     .31275E+00    -.16581E+00         .000      .000
    .500    -.52789E-02    -.20681E-02    -.56106E+01     .15180E+01    -.17337E+00         .000      .000
    .510    -.69565E-02    -.28401E-02    -.16206E+02     .24565E+01    -.15941E+00         .000      .000
    .520    -.83878E-02    -.35053E-02    -.23873E+02     .29230E+01    -.12161E+00         .000      .000
    .530    -.92680E-02    -.39939E-02    -.28794E+02     .33507E+01    -.47497E-01         .000      .000
    .540    -.92060E-02    -.42454E-02    -.32586E+02     .35999E+01     .65862E-01         .000      .000
    .550    -.78570E-02    -.41408E-02    -.33691E+02     .28720E+01     .20707E+00         .000      .000
    .560    -.50571E-02    -.35553E-02    -.29464E+02     .85678E+00     .35059E+00         .000      .000
    .570    -.92847E-03    -.24255E-02    -.18567E+02    -.21033E+01     .46937E+00         .000      .000
    .580     .41638E-02    -.77704E-03    -.13771E+01    -.53189E+01     .53846E+00         .000      .000
    .590     .96207E-02     .12762E-02     .21071E+02    -.83919E+01     .54172E+00         .000      .000
    .600     .14814E-01     .35157E-02     .45915E+02    -.10783E+02     .49016E+00         .000      .000
    .610     .19302E-01     .56510E-02     .66590E+02    -.11895E+02     .40214E+00         .000      .000
    .620     .22786E-01     .74624E-02     .78431E+02    -.12026E+02     .29254E+00         .000      .000
    .630     .25099E-01     .88584E-02     .80827E+02    -.11479E+02     .16687E+00         .000      .000
    .640     .26073E-01     .98467E-02     .75604E+02    -.10290E+02     .26104E-01         .000      .000
    .650     .25590E-01     .10474E-01     .65324E+02    -.80936E+01    -.12391E+00         .000      .000
    .660     .23561E-01     .10783E-01     .52278E+02    -.47869E+01    -.28407E+00         .000      .000
    .670     .19856E-01     .10774E-01     .39418E+02    -.75772E+00    -.46004E+00         .000      .000
    .680     .14348E-01     .10338E-01     .27557E+02     .39139E+01    -.63940E+00         .000      .000
    .690     .71894E-02     .92523E-02     .12029E+02     .96781E+01    -.78239E+00         .000      .000
    .700    -.10496E-02     .73490E-02    -.13260E+02     .16185E+02    -.85095E+00         .000      .000
    .710    -.95066E-02     .47029E-02    -.47948E+02     .21916E+02    -.82325E+00         .000      .000
    .720    -.17127E-01     .16187E-02    -.86415E+02     .25845E+02    -.67942E+00         .000      .000
    .730    -.22678E-01    -.14620E-02    -.12337E+03     .27893E+02    -.41063E+00         .000      .000
    .740    -.25066E-01    -.39737E-02    -.15119E+03     .27333E+02    -.60491E-01         .000      .000
    .750    -.23891E-01    -.53375E-02    -.15645E+03     .22902E+02     .28832E+00         .000      .000
    .760    -.19499E-01    -.52971E-02    -.13094E+03     .15405E+02     .57831E+00         .000      .000
    .770    -.12602E-01    -.40904E-02    -.82221E+02     .72465E+01     .78611E+00         .000      .000
    .780    -.40894E-02    -.22093E-02    -.23934E+02    -.78060E+00     .90001E+00         .000      .000
    .790     .50982E-02    -.14806E-03     .33965E+02    -.90426E+01     .92392E+00         .000      .000
    .800     .14178E-01     .16691E-02     .82069E+02    -.16951E+02     .88498E+00         .000      .000
    .810     .22660E-01     .30120E-02     .11192E+03    -.23488E+02     .80496E+00         .000      .000
    .820     .30145E-01     .39920E-02     .12483E+03    -.28768E+02     .68520E+00         .000      .000
    .830     .36239E-01     .49322E-02     .13034E+03    -.32782E+02     .52826E+00         .000      .000
    .840     .40585E-01     .60817E-02     .13501E+03    -.34659E+02     .33416E+00         .000      .000
    .850     .42804E-01     .74984E-02     .14094E+03    -.34012E+02     .10451E+00         .000      .000
    .860     .42540E-01     .90225E-02     .14674E+03    -.30877E+02    -.16599E+00         .000      .000
    .870     .39346E-01     .10310E-01     .14853E+03    -.25663E+02    -.47784E+00         .000      .000
    .880     .32946E-01     .10896E-01     .13935E+03    -.18093E+02    -.80047E+00         .000      .000
    .890     .23396E-01     .10364E-01     .11077E+03    -.80283E+01    -.11058E+01         .000      .000
    .900     .10990E-01     .85693E-02     .62724E+02     .32911E+01    -.13636E+01         .000      .000
    .910    -.35799E-02     .56124E-02     .82045E+00     .15177E+02    -.15327E+01         .000      .000
    .920    -.19296E-01     .17557E-02    -.69068E+02     .27074E+02    -.15918E+01         .000      .000
    .930    -.34984E-01    -.25981E-02    -.13741E+03     .37685E+02    -.15216E+01         .000      .000
    .940    -.49168E-01    -.70437E-02    -.19657E+03     .46411E+02    -.12836E+01         .000      .000
    .950    -.59935E-01    -.11210E-01    -.24530E+03     .52681E+02    -.83017E+00         .000      .000
    .960    -.65012E-01    -.14607E-01    -.28275E+03     .54842E+02    -.14997E+00         .000      .000
    .970    -.62597E-01    -.16520E-01    -.30036E+03     .50141E+02     .63037E+00         .000      .000
    .980    -.52815E-01    -.16184E-01    -.27689E+03     .36389E+02     .12875E+01         .000      .000
    .990    -.37730E-01    -.13426E-01    -.19921E+03     .17106E+02     .16826E+01         .000      .000
   1.000    -.20117E-01    -.90094E-02    -.85030E+02    -.71760E+00     .17939E+01         .000      .000
   1.010    -.25356E-02    -.41451E-02     .36217E+02    -.14677E+02     .17003E+01         .000      .000
   1.020     .13653E-01     .30721E-04     .13836E+03    -.25470E+02     .15358E+01         .000      .000
   1.030     .28151E-01     .28284E-02     .20039E+03    -.34669E+02     .13620E+01         .000      .000
   1.040     .40792E-01     .43223E-02     .22160E+03    -.44069E+02     .11580E+01         .000      .000
   1.050     .51056E-01     .51573E-02     .21862E+03    -.52586E+02     .87866E+00         .000      .000
   1.060     .58070E-01     .60660E-02     .21005E+03    -.57369E+02     .51180E+00         .000      .000
   1.070     .61114E-01     .74772E-02     .20726E+03    -.56404E+02     .91884E-01         .000      .000
   1.080     .59892E-01     .93448E-02     .21104E+03    -.50041E+02    -.33325E+00         .000      .000
   1.090     .54658E-01     .11187E-01     .21249E+03    -.39874E+02    -.69624E+00         .000      .000
   1.100     .46417E-01     .12328E-01     .19366E+03    -.26850E+02    -.92472E+00         .000      .000
   1.110     .36688E-01     .12396E-01     .14099E+03    -.12622E+02    -.99673E+00         .000      .000
   1.120     .26945E-01     .11681E-01     .61683E+02     .23724E+00    -.93076E+00         .000      .000
   1.130     .18421E-01     .10923E-01    -.23873E+02     .11026E+02    -.76038E+00         .000      .000
   1.140     .11971E-01     .10917E-01    -.95404E+02     .20179E+02    -.51992E+00         .000      .000
   1.150     .80318E-02     .12205E-01    -.13768E+03     .27691E+02    -.27704E+00         .000      .000
   1.160     .61152E-02     .14866E-01    -.14056E+03     .32303E+02    -.12889E+00         .000      .000
   1.170     .49734E-02     .18287E-01    -.10707E+03     .34577E+02    -.12399E+00         .000      .000
   1.180     .30953E-02     .21230E-01    -.60663E+02     .36806E+02    -.28038E+00         .000      .000
   1.190    -.95637E-03     .22409E-01    -.25937E+02     .39469E+02    -.53325E+00         .000      .000
   1.200    -.74713E-02     .20909E-01    -.22957E+02     .43332E+02    -.75645E+00         .000      .000
   1.210    -.15871E-01     .16595E-01    -.59419E+02     .46760E+02    -.91675E+00         .000      .000
   1.220    -.25705E-01     .10219E-01    -.11376E+03     .46352E+02    -.10475E+01         .000      .000
   1.230    -.36691E-01     .27457E-02    -.15975E+03     .43417E+02    -.11380E+01         .000      .000
   1.240    -.48206E-01    -.51782E-02    -.19102E+03     .41485E+02    -.11502E+01         .000      .000
   1.250    -.59247E-01    -.13087E-01    -.20626E+03     .39840E+02    -.10290E+01         .000      .000
   1.260    -.68171E-01    -.20648E-01    -.20564E+03     .36312E+02    -.72417E+00         .000      .000
   1.270    -.73168E-01    -.27615E-01    -.19587E+03     .28977E+02    -.25167E+00         .000      .000
   1.280    -.72934E-01    -.33612E-01    -.17950E+03     .16579E+02     .30177E+00         .000      .000
   1.290    -.67293E-01    -.38099E-01    -.15009E+03    -.50636E+00     .80761E+00         .000      .000
   1.300    -.57274E-01    -.40609E-01    -.98166E+02    -.20019E+02     .11669E+01         .000      .000
   1.310    -.44567E-01    -.41045E-01    -.22516E+02    -.38586E+02     .13437E+01         .000      .000
   1.320    -.30985E-01    -.39749E-01     .67568E+02    -.54029E+02     .13455E+01         .000      .000
   1.330    -.18069E-01    -.37359E-01     .15739E+03    -.65846E+02     .12240E+01         .000      .000
   1.340    -.67900E-02    -.34608E-01     .22794E+03    -.73691E+02     .10170E+01         .000      .000
   1.350     .20946E-02    -.31995E-01     .26711E+03    -.78190E+02     .75695E+00         .000      .000
   1.360     .83434E-02    -.29663E-01     .27144E+03    -.78551E+02     .49572E+00         .000      .000
   1.370     .12040E-01    -.27385E-01     .24426E+03    -.74449E+02     .24342E+00         .000      .000
   1.380     .13148E-01    -.24632E-01     .20285E+03    -.67283E+02    -.28515E-01         .000      .000
   1.390     .11044E-01    -.21017E-01     .16682E+03    -.57616E+02    -.42808E+00         .000      .000
   1.400     .36992E-02    -.16732E-01     .15032E+03    -.45549E+02    -.10931E+01         .000      .000
   1.410    -.11481E-01    -.12913E-01     .14935E+03    -.28014E+02    -.19549E+01         .000      .000
   1.420    -.35068E-01    -.11513E-01     .12154E+03     .33378E+00    -.27165E+01         .000      .000
   1.430    -.64525E-01    -.14007E-01     .20327E+02     .36524E+02    -.30958E+01         .000      .000
   1.440    -.95405E-01    -.20169E-01    -.15224E+03     .69328E+02    -.30060E+01         .000      .000
   1.450    -.12328E+00    -.28291E-01    -.35206E+03     .91208E+02    -.25095E+01         .000      .000
   1.460    -.14462E+00    -.36183E-01    -.53270E+03     .10366E+03    -.17194E+01         .000      .000
   1.470    -.15689E+00    -.41807E-01    -.65668E+03     .10977E+03    -.69462E+00         .000      .000
   1.480    -.15785E+00    -.43711E-01    -.69943E+03     .11002E+03     .52772E+00         .000      .000
   1.490    -.14607E+00    -.41271E-01    -.65248E+03     .10068E+03     .18291E+01         .000      .000
   1.500    -.12162E+00    -.34799E-01    -.52348E+03     .79236E+02     .30261E+01         .000      .000
   1.510    -.86504E-01    -.25435E-01    -.34026E+03     .48154E+02     .39378E+01         .000      .000
   1.520    -.44146E-01    -.14655E-01    -.13911E+03     .12784E+02     .44666E+01         .000      .000
   1.530     .13742E-02    -.36874E-02     .51661E+02    -.22488E+02     .45606E+01         .000      .000
   1.540     .45543E-01     .67477E-02     .22374E+03    -.55825E+02     .41986E+01         .000      .000
   1.550     .84100E-01     .16125E-01     .37577E+03    -.83968E+02     .34648E+01         .000      .000
   1.560     .11393E+00     .23820E-01     .49287E+03    -.10218E+03     .24600E+01         .000      .000
   1.570     .13249E+00     .29379E-01     .56657E+03    -.11076E+03     .12125E+01         .000      .000
   1.580     .13759E+00     .32470E-01     .60315E+03    -.11084E+03    -.21061E+00         .000      .000
   1.590     .12816E+00     .32460E-01     .59337E+03    -.99417E+02    -.16690E+01         .000      .000
   1.600     .10464E+00     .28741E-01     .51911E+03    -.75719E+02    -.30005E+01         .000      .000
   1.610     .69191E-01     .21289E-01     .37942E+03    -.43329E+02    -.40214E+01         .000      .000
   1.620     .25845E-01     .10721E-01     .18511E+03    -.61746E+01    -.45542E+01         .000      .000
   1.630    -.20075E-01    -.17163E-02    -.46229E+02     .31336E+02    -.45443E+01         .000      .000
   1.640    -.63417E-01    -.14167E-01    -.27759E+03     .63316E+02    -.40494E+01         .000      .000
   1.650    -.99670E-01    -.24757E-01    -.46803E+03     .87388E+02    -.31370E+01         .000      .000
   1.660    -.12513E+00    -.32156E-01    -.59625E+03     .10356E+03    -.19186E+01         .000      .000
   1.670    -.13751E+00    -.35580E-01    -.64927E+03     .10948E+03    -.54196E+00         .000      .000
   1.680    -.13604E+00    -.34906E-01    -.62263E+03     .10386E+03     .81584E+00         .000      .000
   1.690    -.12184E+00    -.30718E-01    -.52678E+03     .87395E+02     .19799E+01         .000      .000
   1.700    -.97484E-01    -.24132E-01    -.38394E+03     .63303E+02     .28322E+01         .000      .000
   1.710    -.66502E-01    -.16433E-01    -.22054E+03     .35154E+02     .32951E+01         .000      .000
   1.720    -.32891E-01    -.87464E-02    -.55450E+02     .55787E+01     .33668E+01         .000      .000
   1.730    -.32155E-03    -.19872E-02     .94943E+02    -.22112E+02     .30934E+01         .000      .000
   1.740     .28001E-01     .32252E-02     .21841E+03    -.45789E+02     .25278E+01         .000      .000
   1.750     .49641E-01     .65722E-02     .31049E+03    -.63863E+02     .17851E+01         .000      .000
   1.760     .63577E-01     .79038E-02     .36308E+03    -.74009E+02     .10052E+01         .000      .000
   1.770     .69919E-01     .74010E-02     .37228E+03    -.76956E+02     .27624E+00         .000      .000
   1.780     .69384E-01     .56196E-02     .34885E+03    -.75171E+02    -.36856E+00         .000      .000
   1.790     .62849E-01     .31666E-02     .30603E+03    -.69375E+02    -.92281E+00         .000      .000
   1.800     .51257E-01     .46004E-03     .25068E+03    -.58949E+02    -.13783E+01         .000      .000
   1.810     .35755E-01    -.22673E-02     .18595E+03    -.44011E+02    -.16927E+01         .000      .000
   1.820     .18157E-01    -.49001E-02     .11164E+03    -.25569E+02    -.17817E+01         .000      .000
   1.830     .95260E-03    -.72686E-02     .25625E+02    -.61046E+01    -.16228E+01         .000      .000
