


 TIME HISTORY FOR STORY NO.  1



    TIME   DISPLACEMENT    STORY DRIFT    STORY SHEAR   ACCELERATION     VELOCITY          DAMAGE    DAMAGE
                                                                                          BEAM-SLAB  COL-WALL

    .000     .00000E+00     .00000E+00     .00000E+00     .00000E+00     .00000E+00         .000      .000
    .010    -.26731E-05    -.26731E-05    -.15190E+00     .39440E-01    -.43405E-03         .000      .000
    .020    -.78451E-05    -.78451E-05    -.37912E+00     .63728E-01    -.62966E-03         .000      .000
    .030    -.14678E-04    -.14678E-04    -.61950E+00     .74993E-01    -.66461E-03         .000      .000
    .040    -.21270E-04    -.21270E-04    -.78421E+00     .76226E-01    -.71571E-03         .000      .000
    .050    -.28480E-04    -.28480E-04    -.95361E+00     .75957E-01    -.63890E-03         .000      .000
    .060    -.33784E-04    -.33784E-04    -.99029E+00     .55355E-01    -.46371E-03         .000      .000
    .070    -.37728E-04    -.37728E-04    -.97062E+00     .36007E-01    -.29128E-03         .000      .000
    .080    -.40254E-04    -.40254E-04    -.90783E+00     .23621E-01    -.29083E-03         .000      .000
    .090    -.43954E-04    -.43954E-04    -.95739E+00     .36192E-01    -.42600E-03         .000      .000
    .100    -.49987E-04    -.49987E-04    -.11536E+01     .81436E-01    -.89716E-03         .000      .000
    .110    -.61404E-04    -.61404E-04    -.16114E+01     .14742E+00    -.12649E-02         .000      .000
    .120    -.73656E-04    -.73656E-04    -.19893E+01     .16463E+00    -.11431E-02         .000      .000
    .130    -.82639E-04    -.82639E-04    -.20991E+01     .13026E+00    -.54766E-03         .000      .000
    .140    -.85375E-04    -.85375E-04    -.18716E+01     .79954E-01    -.13562E-03         .000      .000
    .150    -.84901E-04    -.84901E-04    -.15426E+01     .29261E-01     .36354E-03         .000      .000
    .160    -.78003E-04    -.78003E-04    -.92177E+00    -.58909E-01     .92674E-03         .000      .000
    .170    -.67922E-04    -.67922E-04    -.27324E+00    -.11360E+00     .10326E-02         .000      .000
    .180    -.58319E-04    -.58319E-04     .19768E+00    -.12704E+00     .85009E-03         .000      .000
    .190    -.50174E-04    -.50174E-04     .48266E+00    -.12560E+00     .86817E-03         .000      .000
    .200    -.37961E-04    -.37961E-04     .92319E+00    -.17917E+00     .17539E-02         .000      .000
    .210    -.12837E-04    -.12837E-04     .19340E+01    -.31104E+00     .33290E-02         .000      .000
    .220     .26417E-04     .26417E-04     .34065E+01    -.42656E+00     .43040E-02         .000      .000
    .230     .68416E-04     .68416E-04     .46572E+01    -.42186E+00     .38517E-02         .000      .000
    .240     .95953E-04     .95953E-04     .49464E+01    -.22863E+00     .12044E-02         .000      .000
    .250     .94400E-04     .94400E-04     .39258E+01     .55957E-02    -.10545E-02         .000      .000
    .260     .76317E-04     .76317E-04     .26546E+01     .13407E+00    -.27704E-02         .000      .000
    .270     .37053E-04     .37053E-04     .73642E+00     .34421E+00    -.50708E-02         .000      .000
    .280    -.20953E-04    -.20953E-04    -.16046E+01     .50766E+00    -.62133E-02         .000      .000
    .290    -.84054E-04    -.84054E-04    -.35746E+01     .54005E+00    -.63794E-02         .000      .000
    .300    -.14518E-03    -.14518E-03    -.49667E+01     .44523E+00    -.55885E-02         .000      .000
    .310    -.19237E-03    -.19237E-03    -.53734E+01     .18688E+00    -.37389E-02         .000      .000
    .320    -.22513E-03    -.22513E-03    -.52822E+01     .13731E-01    -.32791E-02         .000      .000
    .330    -.26764E-03    -.26764E-03    -.63595E+01     .21094E+00    -.56690E-02         .000      .000
    .340    -.33730E-03    -.33730E-03    -.91796E+01     .60061E+00    -.78711E-02         .000      .000
    .350    -.41849E-03    -.41849E-03    -.12346E+02     .88131E+00    -.81242E-02         .000      .000
    .360    -.50322E-03    -.50322E-03    -.15455E+02     .12183E+01    -.92633E-02         .000      .000
    .370    -.59301E-03    -.59301E-03    -.18485E+02     .14237E+01    -.75214E-02         .000      .000
    .380    -.63326E-03    -.63326E-03    -.18218E+02     .93397E+00     .27882E-03         .000      .000
    .390    -.58063E-03    -.58063E-03    -.13220E+02    -.55019E-01     .10264E-01         .000      .000
    .400    -.43491E-03    -.43491E-03    -.47344E+01    -.11098E+01     .18326E-01         .000      .000
    .410    -.22943E-03    -.22943E-03     .47132E+01    -.18524E+01     .21929E-01         .000      .000
    .420    -.17834E-04    -.17834E-04     .12228E+02    -.19580E+01     .19232E-01         .000      .000
    .430     .13667E-03     .13667E-03     .15208E+02    -.13146E+01     .10954E-01         .000      .000
    .440     .18543E-03     .18543E-03     .12501E+02     .50456E-02    -.20207E-02         .000      .000
    .450     .10417E-03     .10417E-03     .45962E+01     .15082E+01    -.13056E-01         .000      .000
    .460    -.61940E-04    -.61940E-04    -.44831E+01     .25622E+01    -.19939E-01         .000      .000
    .470    -.29941E-03    -.29941E-03    -.13770E+02     .34366E+01    -.28126E-01         .000      .000
    .480    -.61063E-03    -.61063E-03    -.22996E+02     .37715E+01    -.32643E-01         .000      .000
    .490    -.92665E-03    -.92665E-03    -.28277E+02     .28967E+01    -.29508E-01         .000      .000
    .500    -.11962E-02    -.11962E-02    -.28899E+02     .14018E+01    -.24633E-01         .000      .000
    .510    -.14319E-02    -.14319E-02    -.28345E+02     .26922E+00    -.23236E-01         .000      .000
    .520    -.16345E-02    -.16345E-02    -.28147E+02    -.78826E+00    -.14528E-01         .000      .000
    .530    -.16660E-02    -.16660E-02    -.21845E+02    -.28760E+01     .10953E-01         .000      .000
    .540    -.13831E-02    -.13831E-02    -.48505E+01    -.56891E+01     .46470E-01         .000      .000
    .550    -.73266E-03    -.73266E-03     .22114E+02    -.84229E+01     .83390E-01         .000      .000
    .560     .25647E-03     .25647E-03     .55700E+02    -.10376E+02     .11223E+00         .000      .000
    .570     .14689E-02     .14689E-02     .90356E+02    -.11164E+02     .12817E+00         .000      .000
    .580     .27520E-02     .27520E-02     .12088E+03    -.10550E+02     .12420E+00         .000      .000
    .590     .38894E-02     .38894E-02     .13999E+03    -.83022E+01     .10098E+00         .000      .000
    .600     .47690E-02     .47690E-02     .14758E+03    -.58353E+01     .76207E-01         .000      .000
    .610     .54196E-02     .54196E-02     .14958E+03    -.40734E+01     .53426E-01         .000      .000
    .620     .58367E-02     .58367E-02     .14725E+03    -.28141E+01     .30218E-01         .000      .000
    .630     .59967E-02     .59967E-02     .14027E+03    -.17561E+01    -.67741E-03         .000      .000
    .640     .57881E-02     .57881E-02     .12316E+03    -.22208E+00    -.42131E-01         .000      .000
    .650     .51262E-02     .51262E-02     .92518E+02     .18779E+01    -.91713E-01         .000      .000
    .660     .39175E-02     .39175E-02     .43394E+02     .54522E+01    -.15174E+00         .000      .000
    .670     .20696E-02     .20696E-02    -.29148E+02     .11183E+02    -.21818E+00         .000      .000
    .680    -.38512E-03    -.38512E-03    -.12189E+03     .17709E+02    -.26749E+00         .000      .000
    .690    -.31389E-02    -.31389E-02    -.21714E+03     .22128E+02    -.27548E+00         .000      .000
    .700    -.57624E-02    -.57624E-02    -.29536E+03     .23242E+02    -.24383E+00         .000      .000
    .710    -.79162E-02    -.79162E-02    -.34581E+03     .21338E+02    -.18249E+00         .000      .000
    .720    -.93040E-02    -.93040E-02    -.36039E+03     .15924E+02    -.89278E-01         .000      .000
    .730    -.96280E-02    -.96280E-02    -.33175E+03     .71520E+01     .26568E-01         .000      .000
    .740    -.88400E-02    -.88400E-02    -.26796E+03    -.12999E+01     .12436E+00         .000      .000
    .750    -.72818E-02    -.72818E-02    -.19411E+03    -.54821E+01     .18062E+00         .000      .000
    .760    -.52880E-02    -.52880E-02    -.12465E+03    -.62036E+01     .21765E+00         .000      .000
    .770    -.29391E-02    -.29391E-02    -.55328E+02    -.59202E+01     .25126E+00         .000      .000
    .780    -.29085E-03    -.29085E-03     .18065E+02    -.53490E+01     .27634E+00         .000      .000
    .790     .25709E-02     .25709E-02     .98327E+02    -.57171E+01     .29558E+00         .000      .000
    .800     .56290E-02     .56290E-02     .19226E+03    -.91398E+01     .31648E+00         .000      .000
    .810     .88337E-02     .88337E-02     .30153E+03    -.15383E+02     .31838E+00         .000      .000
    .820     .11843E-01     .11843E-01     .40859E+03    -.21502E+02     .27514E+00         .000      .000
    .830     .14195E-01     .14195E-01     .49069E+03    -.25622E+02     .18968E+00         .000      .000
    .840     .15524E-01     .15524E-01     .53081E+03    -.26317E+02     .71446E-01         .000      .000
    .850     .15576E-01     .15576E-01     .51718E+03    -.22695E+02    -.61078E-01         .000      .000
    .860     .14290E-01     .14290E-01     .44911E+03    -.14863E+02    -.19690E+00         .000      .000
    .870     .11688E-01     .11688E-01     .33065E+03    -.37976E+01    -.31896E+00         .000      .000
    .880     .80420E-02     .80420E-02     .18078E+03     .70063E+01    -.40299E+00         .000      .000
    .890     .37192E-02     .37192E-02     .19748E+02     .16172E+02    -.45929E+00         .000      .000
    .900    -.10615E-02    -.10615E-02    -.14406E+03     .23601E+02    -.49169E+00         .000      .000
    .910    -.60065E-02    -.60065E-02    -.29903E+03     .28048E+02    -.49197E+00         .000      .000
    .920    -.10828E-01    -.10828E-01    -.43799E+03     .30457E+02    -.46952E+00         .000      .000
    .930    -.15283E-01    -.15283E-01    -.55803E+03     .31290E+02    -.41366E+00         .000      .000
    .940    -.18890E-01    -.18890E-01    -.64236E+03     .28258E+02    -.29569E+00         .000      .000
    .950    -.20925E-01    -.20925E-01    -.66458E+03     .19170E+02    -.97264E-01         .000      .000
    .960    -.20635E-01    -.20635E-01    -.60152E+03     .43012E+01     .16187E+00         .000      .000
    .970    -.17840E-01    -.17840E-01    -.46306E+03    -.89683E+01     .38018E+00         .000      .000
    .980    -.13425E-01    -.13425E-01    -.30455E+03    -.12146E+02     .48234E+00         .000      .000
    .990    -.84469E-02    -.84469E-02    -.16424E+03    -.78861E+01     .50563E+00         .000      .000
   1.000    -.34484E-02    -.34484E-02    -.41450E+02    -.22204E+01     .48722E+00         .000      .000
   1.010     .13153E-02     .13153E-02     .72816E+02     .72439E+00     .47141E+00         .000      .000
   1.020     .61324E-02     .61324E-02     .20823E+03    -.42229E+01     .49998E+00         .000      .000
   1.030     .11317E-01     .11317E-01     .38199E+03    -.15522E+02     .53120E+00         .000      .000
   1.040     .16554E-01     .16554E-01     .57244E+03    -.27762E+02     .50336E+00         .000      .000
   1.050     .21062E-01     .21062E-01     .73976E+03    -.37145E+02     .38057E+00         .000      .000
   1.060     .23879E-01     .23879E-01     .83944E+03    -.40952E+02     .17217E+00         .000      .000
   1.070     .24372E-01     .24372E-01     .84436E+03    -.38252E+02    -.75641E-01         .000      .000
   1.080     .22424E-01     .22424E-01     .75008E+03    -.29156E+02    -.30639E+00         .000      .000
   1.090     .18543E-01     .18543E-01     .58294E+03    -.17696E+02    -.45035E+00         .000      .000
   1.100     .13817E-01     .13817E-01     .39699E+03    -.97735E+01    -.47603E+00         .000      .000
   1.110     .92604E-02     .92604E-02     .23478E+03    -.64730E+01    -.42937E+00         .000      .000
   1.120     .52945E-02     .52945E-02     .10487E+03    -.58015E+01    -.36292E+00         .000      .000
   1.130     .19555E-02     .19555E-02    -.76323E+00    -.57894E+01    -.30922E+00         .000      .000
   1.140    -.96058E-03    -.96058E-03    -.10063E+03    -.37857E+01    -.27613E+00         .000      .000
   1.150    -.37032E-02    -.37032E-02    -.21352E+03     .39070E+01    -.28127E+00         .000      .000
   1.160    -.67006E-02    -.67006E-02    -.36314E+03     .20408E+02    -.32091E+00         .000      .000
   1.170    -.10055E-01    -.10055E-01    -.54355E+03     .41357E+02    -.34310E+00         .000      .000
   1.180    -.13476E-01    -.13476E-01    -.72388E+03     .61651E+02    -.33979E+00         .000      .000
   1.190    -.16642E-01    -.16642E-01    -.87355E+03     .75234E+02    -.27849E+00         .000      .000
   1.200    -.18822E-01    -.18822E-01    -.94438E+03     .75352E+02    -.15071E+00         .000      .000
   1.210    -.19750E-01    -.19750E-01    -.93066E+03     .67527E+02    -.47178E-01         .000      .000
   1.220    -.20001E-01    -.20001E-01    -.87473E+03     .59298E+02    -.13355E-01         .000      .000
   1.230    -.20093E-01    -.20093E-01    -.80451E+03     .50011E+02    -.39953E-02         .000      .000
   1.240    -.20083E-01    -.20083E-01    -.72356E+03     .39081E+02     .59063E-02         .000      .000
   1.250    -.19845E-01    -.19845E-01    -.63371E+03     .27203E+02     .53520E-01         .000      .000
   1.260    -.18766E-01    -.18766E-01    -.51254E+03     .12093E+02     .17463E+00         .000      .000
   1.270    -.16172E-01    -.16172E-01    -.33875E+03    -.56939E+01     .35042E+00         .000      .000
   1.280    -.11773E-01    -.11773E-01    -.10925E+03    -.23793E+02     .52301E+00         .000      .000
   1.290    -.59419E-02    -.59419E-02     .15276E+03    -.38882E+02     .62797E+00         .000      .000
   1.300     .49027E-03     .49027E-03     .41106E+03    -.49325E+02     .64439E+00         .000      .000
   1.310     .67062E-02     .67062E-02     .63744E+03    -.55442E+02     .58889E+00         .000      .000
   1.320     .12117E-01     .12117E-01     .81565E+03    -.57671E+02     .48813E+00         .000      .000
   1.330     .16482E-01     .16482E-01     .94570E+03    -.58472E+02     .38943E+00         .000      .000
   1.340     .19909E-01     .19909E-01     .10423E+04    -.59396E+02     .29270E+00         .000      .000
   1.350     .22345E-01     .22345E-01     .11063E+04    -.60514E+02     .19724E+00         .000      .000
   1.360     .23857E-01     .23857E-01     .11460E+04    -.63857E+02     .10301E+00         .000      .000
   1.370     .24260E-01     .24260E-01     .11488E+04    -.65548E+02    -.32290E-01         .000      .000
   1.380     .23000E-01     .23000E-01     .10804E+04    -.60054E+02    -.22907E+00         .000      .000
   1.390     .19342E-01     .19342E-01     .90108E+03    -.40941E+02    -.52270E+00         .000      .000
   1.400     .12245E-01     .12245E-01     .56417E+03    -.37151E+01    -.90672E+00         .000      .000
   1.410     .15012E-02     .15012E-02     .85897E+02     .38975E+02    -.12116E+01         .000      .000
   1.420    -.11173E-01    -.11173E-01    -.41858E+03     .66594E+02    -.12788E+01         .000      .000
   1.430    -.23337E-01    -.23337E-01    -.83400E+03     .73495E+02    -.11241E+01         .000      .000
   1.440    -.33306E-01    -.33306E-01    -.11151E+04     .67138E+02    -.86103E+00         .000      .000
   1.450    -.40448E-01    -.40448E-01    -.12704E+04     .54517E+02    -.56410E+00         .000      .000
   1.460    -.44655E-01    -.44655E-01    -.13212E+04     .39470E+02    -.28513E+00         .000      .000
   1.470    -.46166E-01    -.46166E-01    -.12981E+04     .24223E+02    -.12186E-01         .000      .000
   1.480    -.44866E-01    -.44866E-01    -.12087E+04     .10052E+02     .27300E+00         .000      .000
   1.490    -.40683E-01    -.40683E-01    -.10660E+04     .21951E+01     .56627E+00         .000      .000
   1.500    -.33525E-01    -.33525E-01    -.86779E+03     .66015E+00     .86392E+00         .000      .000
   1.510    -.23465E-01    -.23465E-01    -.60088E+03     .76303E+00     .11413E+01         .000      .000
   1.520    -.10905E-01    -.10905E-01    -.25465E+03    -.35195E+01     .13555E+01         .000      .000
   1.530     .31480E-02     .31480E-02     .15044E+03    -.11721E+02     .14233E+01         .000      .000
   1.540     .16924E-01     .16924E-01     .55045E+03    -.18604E+02     .13013E+01         .000      .000
   1.550     .28775E-01     .28775E-01     .89113E+03    -.24898E+02     .10574E+01         .000      .000
   1.560     .37729E-01     .37729E-01     .11469E+04    -.29838E+02     .71385E+00         .000      .000
   1.570     .42647E-01     .42647E-01     .12681E+04    -.25411E+02     .25151E+00         .000      .000
   1.580     .42646E-01     .42646E-01     .12221E+04    -.12340E+02    -.24790E+00         .000      .000
   1.590     .37873E-01     .37873E-01     .10320E+04     .22611E+01    -.69406E+00         .000      .000
   1.600     .29064E-01     .29064E-01     .73599E+03     .15262E+02    -.10512E+01         .000      .000
   1.610     .17312E-01     .17312E-01     .37705E+03     .23301E+02    -.12721E+01         .000      .000
   1.620     .42118E-02     .42118E-02     .12872E+02     .22510E+02    -.13176E+01         .000      .000
   1.630    -.86424E-02    -.86424E-02    -.31446E+03     .16576E+02    -.12403E+01         .000      .000
   1.640    -.20333E-01    -.20333E-01    -.60266E+03     .11866E+02    -.10842E+01         .000      .000
   1.650    -.30009E-01    -.30009E-01    -.83916E+03     .75302E+01    -.83396E+00         .000      .000
   1.660    -.36808E-01    -.36808E-01    -.10044E+04     .46219E+01    -.52038E+00         .000      .000
   1.670    -.40291E-01    -.40291E-01    -.10960E+04     .56757E+01    -.16944E+00         .000      .000
   1.680    -.40180E-01    -.40180E-01    -.11050E+04     .10145E+02     .18755E+00         .000      .000
   1.690    -.36610E-01    -.36610E-01    -.10304E+04     .16745E+02     .52204E+00         .000      .000
   1.700    -.29896E-01    -.29896E-01    -.86613E+03     .21210E+02     .80864E+00         .000      .000
   1.710    -.20764E-01    -.20764E-01    -.62237E+03     .22395E+02     .99744E+00         .000      .000
   1.720    -.10300E-01    -.10300E-01    -.32587E+03     .19351E+02     .10791E+01         .000      .000
   1.730     .44372E-03     .44372E-03    -.28607E+01     .11893E+02     .10496E+01         .000      .000
   1.740     .10300E-01     .10300E-01     .30625E+03     .33724E+01     .90355E+00         .000      .000
   1.750     .18332E-01     .18332E-01     .57048E+03    -.68907E+01     .70078E+00         .000      .000
   1.760     .24260E-01     .24260E-01     .78624E+03    -.20338E+02     .48243E+00         .000      .000
   1.770     .27911E-01     .27911E-01     .94008E+03    -.32755E+02     .24488E+00         .000      .000
   1.780     .29108E-01     .29108E-01     .10131E+04    -.40386E+02    -.66836E-02         .000      .000
   1.790     .27799E-01     .27799E-01     .99497E+03    -.42089E+02    -.25178E+00         .000      .000
   1.800     .24166E-01     .24166E-01     .88920E+03    -.38507E+02    -.46880E+00         .000      .000
   1.810     .18652E-01     .18652E-01     .71273E+03    -.32239E+02    -.61883E+00         .000      .000
   1.820     .12173E-01     .12173E-01     .50480E+03    -.28052E+02    -.65560E+00         .000      .000
   1.830     .58118E-02     .58118E-02     .30424E+03    -.25623E+02    -.60873E+00         .000      .000
