


 TIME HISTORY FOR STORY NO.  6



    TIME   DISPLACEMENT    STORY DRIFT    STORY SHEAR   ACCELERATION     VELOCITY          DAMAGE    DAMAGE
                                                                                          BEAM-SLAB  COL-WALL

    .000     .00000E+00     .00000E+00     .00000E+00     .00000E+00     .00000E+00         .000      .000
    .010    -.30252E-05    -.97554E-09    -.53003E-05     .25545E-03    -.57693E-03         .000      .000
    .020    -.11706E-04    -.16822E-07    -.25844E-02     .14076E-02    -.12200E-02         .000      .000
    .030    -.27492E-04     .16145E-06    -.14291E-01     .42499E-02    -.18837E-02         .000      .000
    .040    -.49410E-04     .14191E-05    -.15610E-01     .31048E-02    -.25592E-02         .000      .000
    .050    -.78658E-04     .43787E-05     .30551E-01    -.86110E-02    -.32308E-02         .000      .000
    .060    -.11384E-03     .78377E-05     .12476E+00    -.27977E-01    -.38444E-02         .000      .000
    .070    -.15566E-03     .90568E-05     .22609E+00    -.46333E-01    -.44902E-02         .000      .000
    .080    -.20408E-03     .53465E-05     .30187E+00    -.58433E-01    -.52649E-02         .000      .000
    .090    -.26171E-03    -.51932E-05     .33113E+00    -.60549E-01    -.62621E-02         .000      .000
    .100    -.33093E-03    -.23239E-04     .29840E+00    -.50086E-01    -.77402E-02         .000      .000
    .110    -.41763E-03    -.47709E-04     .20564E+00    -.29004E-01    -.95547E-02         .000      .000
    .120    -.52100E-03    -.75759E-04     .83213E-01    -.47193E-02    -.11067E-01         .000      .000
    .130    -.63661E-03    -.10362E-03    -.13330E-01     .10361E-01    -.11879E-01         .000      .000
    .140    -.75740E-03    -.12849E-03    -.99581E-02     .28126E-02    -.12339E-01         .000      .000
    .150    -.88253E-03    -.15144E-03     .11077E+00    -.25162E-01    -.12536E-01         .000      .000
    .160    -.10066E-02    -.17783E-03     .25576E+00    -.50448E-01    -.12268E-01         .000      .000
    .170    -.11275E-02    -.21328E-03     .29958E+00    -.51572E-01    -.11885E-01         .000      .000
    .180    -.12437E-02    -.25960E-03     .20595E+00    -.26834E-01    -.11333E-01         .000      .000
    .190    -.13523E-02    -.31475E-03    -.10621E-01     .20124E-01    -.10227E-01         .000      .000
    .200    -.14432E-02    -.37364E-03    -.32125E+00     .81548E-01    -.75939E-02         .000      .000
    .210    -.14971E-02    -.42856E-03    -.64218E+00     .13774E+00    -.28506E-02         .000      .000
    .220    -.14964E-02    -.47227E-03    -.85769E+00     .16802E+00     .30329E-02         .000      .000
    .230    -.14385E-02    -.50238E-03    -.93714E+00     .17555E+00     .83234E-02         .000      .000
    .240    -.13390E-02    -.52189E-03    -.10179E+01     .19579E+00     .10895E-01         .000      .000
    .250    -.12257E-02    -.53253E-03    -.12907E+01     .26094E+00     .11939E-01         .000      .000
    .260    -.11006E-02    -.52656E-03    -.17679E+01     .35773E+00     .12867E-01         .000      .000
    .270    -.97237E-03    -.48634E-03    -.21530E+01     .41356E+00     .12560E-01         .000      .000
    .280    -.85200E-03    -.39673E-03    -.20302E+01     .35637E+00     .11460E-01         .000      .000
    .290    -.74679E-03    -.25998E-03    -.13281E+01     .19709E+00     .92935E-02         .000      .000
    .300    -.66892E-03    -.94073E-04    -.26731E+00    -.17236E-01     .63018E-02         .000      .000
    .310    -.61960E-03     .76320E-04     .95712E+00    -.25328E+00     .36669E-02         .000      .000
    .320    -.59996E-03     .22358E-03     .21544E+01    -.47172E+00    -.26340E-03         .000      .000
    .330    -.64000E-03     .32045E-03     .30882E+01    -.62378E+00    -.87107E-02         .000      .000
    .340    -.78698E-03     .34570E-03     .34734E+01    -.65318E+00    -.20975E-01         .000      .000
    .350    -.10624E-02     .29412E-03     .30927E+01    -.53335E+00    -.34104E-01         .000      .000
    .360    -.14746E-02     .18557E-03     .21935E+01    -.34531E+00    -.48930E-01         .000      .000
    .370    -.20371E-02     .53695E-04     .14877E+01    -.23417E+00    -.62644E-01         .000      .000
    .380    -.27034E-02    -.81611E-04     .14053E+01    -.25097E+00    -.69160E-01         .000      .000
    .390    -.33923E-02    -.22357E-03     .18669E+01    -.36724E+00    -.67289E-01         .000      .000
    .400    -.40282E-02    -.39226E-03     .27497E+01    -.55703E+00    -.59092E-01         .000      .000
    .410    -.45658E-02    -.62653E-03     .35990E+01    -.69690E+00    -.48319E-01         .000      .000
    .420    -.50009E-02    -.97096E-03     .33522E+01    -.56280E+00    -.39387E-01         .000      .000
    .430    -.53680E-02    -.14359E-02     .11325E+01    -.26406E-01    -.34765E-01         .000      .000
    .440    -.57165E-02    -.19674E-02    -.29212E+01     .82290E+00    -.36279E-01         .000      .000
    .450    -.61031E-02    -.24549E-02    -.76491E+01     .17179E+01    -.40774E-01         .000      .000
    .460    -.65317E-02    -.27683E-02    -.11397E+02     .23328E+01    -.45304E-01         .000      .000
    .470    -.70296E-02    -.28061E-02    -.12597E+02     .23892E+01    -.56012E-01         .000      .000
    .480    -.76715E-02    -.25405E-02    -.10364E+02     .17812E+01    -.72554E-01         .000      .000
    .490    -.84785E-02    -.20403E-02    -.52656E+01     .69826E+00    -.88351E-01         .000      .000
    .500    -.94345E-02    -.14411E-02     .11978E+01    -.56467E+00    -.10287E+00         .000      .000
    .510    -.10547E-01    -.89750E-03     .78415E+01    -.18041E+01    -.12060E+00         .000      .000
    .520    -.11833E-01    -.56663E-03     .13442E+02    -.27611E+01    -.13407E+00         .000      .000
    .530    -.13153E-01    -.58085E-03     .16300E+02    -.31193E+01    -.12495E+00         .000      .000
    .540    -.14225E-01    -.99199E-03     .15694E+02    -.28497E+01    -.83877E-01         .000      .000
    .550    -.14724E-01    -.17652E-02     .12733E+02    -.22270E+01    -.11058E-01         .000      .000
    .560    -.14372E-01    -.28454E-02     .82343E+01    -.13135E+01     .84002E-01         .000      .000
    .570    -.13003E-01    -.41849E-02     .11191E+01     .18684E+00     .19142E+00         .000      .000
    .580    -.10536E-01    -.56812E-02    -.10055E+02     .25046E+01     .30117E+00         .000      .000
    .590    -.69945E-02    -.71094E-02    -.24945E+02     .54478E+01     .40643E+00         .000      .000
    .600    -.23873E-02    -.81276E-02    -.41038E+02     .84386E+01     .51741E+00         .000      .000
    .610     .33877E-02    -.83490E-02    -.54673E+02     .10738E+02     .63833E+00         .000      .000
    .620     .10386E-01    -.74401E-02    -.61789E+02     .11582E+02     .76110E+00         .000      .000
    .630     .18552E-01    -.52399E-02    -.59548E+02     .10579E+02     .86643E+00         .000      .000
    .640     .27582E-01    -.18369E-02    -.48554E+02     .80626E+01     .93204E+00         .000      .000
    .650     .37014E-01     .24795E-02    -.32317E+02     .48013E+01     .94451E+00         .000      .000
    .660     .46244E-01     .73517E-02    -.14570E+02     .14476E+01     .88895E+00         .000      .000
    .670     .54523E-01     .12463E-01     .28820E+01    -.17740E+01     .75228E+00         .000      .000
    .680     .61042E-01     .17558E-01     .20007E+02    -.49260E+01     .54127E+00         .000      .000
    .690     .65194E-01     .22422E-01     .37537E+02    -.81971E+01     .28419E+00         .000      .000
    .700     .66647E-01     .26844E-01     .57089E+02    -.11963E+02     .33732E-02         .000      .000
    .710     .65226E-01     .30541E-01     .80569E+02    -.16537E+02    -.28829E+00         .000      .000
    .720     .60925E-01     .33049E-01     .10688E+03    -.21457E+02    -.56658E+00         .000      .000
    .730     .54030E-01     .33742E-01     .13000E+03    -.25366E+02    -.80362E+00         .000      .000
    .740     .44979E-01     .32027E-01     .14230E+03    -.26857E+02    -.10022E+01         .000      .000
    .750     .34060E-01     .27556E-01     .13835E+03    -.25036E+02    -.11786E+01         .000      .000
    .760     .21540E-01     .20342E-01     .11480E+03    -.19366E+02    -.13154E+01         .000      .000
    .770     .79989E-02     .10865E-01     .71114E+02    -.10023E+02    -.13785E+01         .000      .000
    .780    -.57160E-02     .12589E-03     .13891E+02     .12512E+01    -.13484E+01         .000      .000
    .790    -.18622E-01    -.10564E-01    -.43620E+02     .11760E+02    -.12152E+01         .000      .000
    .800    -.29650E-01    -.20008E-01    -.89882E+02     .19628E+02    -.97180E+00         .000      .000
    .810    -.37751E-01    -.27412E-01    -.12046E+03     .24403E+02    -.63646E+00         .000      .000
    .820    -.42210E-01    -.32407E-01    -.13614E+03     .26461E+02    -.25016E+00         .000      .000
    .830    -.42691E-01    -.34963E-01    -.14080E+03     .26712E+02     .15565E+00         .000      .000
    .840    -.39125E-01    -.35235E-01    -.14048E+03     .26361E+02     .55364E+00         .000      .000
    .850    -.31719E-01    -.33349E-01    -.13939E+03     .25982E+02     .92120E+00         .000      .000
    .860    -.20901E-01    -.29273E-01    -.13641E+03     .25074E+02     .12283E+01         .000      .000
    .870    -.74592E-02    -.22904E-01    -.12663E+03     .22616E+02     .14434E+01         .000      .000
    .880     .76211E-02    -.14251E-01    -.10523E+03     .17782E+02     .15548E+01         .000      .000
    .890     .23213E-01    -.35814E-02    -.69684E+02     .10239E+02     .15392E+01         .000      .000
    .900     .37924E-01     .85155E-02    -.19886E+02     .11654E+00     .13796E+01         .000      .000
    .910     .50350E-01     .21101E-01     .40726E+02    -.11685E+02     .10842E+01         .000      .000
    .920     .59176E-01     .32973E-01     .10444E+03    -.23532E+02     .66009E+00         .000      .000
    .930     .63225E-01     .42882E-01     .16269E+03    -.33872E+02     .13841E+00         .000      .000
    .940     .61856E-01     .49731E-01     .20870E+03    -.41555E+02    -.40937E+00         .000      .000
    .950     .55260E-01     .52705E-01     .23789E+03    -.45899E+02    -.89024E+00         .000      .000
    .960     .44520E-01     .51337E-01     .24890E+03    -.46866E+02    -.12307E+01         .000      .000
    .970     .31005E-01     .45449E-01     .24218E+03    -.44504E+02    -.14637E+01         .000      .000
    .980     .15293E-01     .35061E-01     .21527E+03    -.38021E+02    -.16820E+01         .000      .000
    .990    -.26065E-02     .20472E-01     .16030E+03    -.25688E+02    -.18909E+01         .000      .000
   1.000    -.22288E-01     .26508E-02     .71203E+02    -.68966E+01    -.20289E+01         .000      .000
   1.010    -.42623E-01    -.16413E-01    -.41152E+02     .15037E+02    -.20007E+01         .000      .000
   1.020    -.61438E-01    -.34068E-01    -.14784E+03     .33996E+02    -.17156E+01         .000      .000
   1.030    -.76149E-01    -.47983E-01    -.22093E+03     .45292E+02    -.11956E+01         .000      .000
   1.040    -.84931E-01    -.56956E-01    -.24951E+03     .48045E+02    -.54960E+00         .000      .000
   1.050    -.87109E-01    -.61077E-01    -.24318E+03     .45167E+02     .10719E+00         .000      .000
   1.060    -.82974E-01    -.61221E-01    -.22440E+03     .41271E+02     .70939E+00         .000      .000
   1.070    -.73126E-01    -.58212E-01    -.21196E+03     .39274E+02     .12508E+01         .000      .000
   1.080    -.58125E-01    -.52257E-01    -.20842E+03     .38665E+02     .17416E+01         .000      .000
   1.090    -.38392E-01    -.43031E-01    -.20169E+03     .36589E+02     .22020E+01         .000      .000
   1.100    -.14163E-01    -.30208E-01    -.17620E+03     .30206E+02     .26381E+01         .000      .000
   1.110     .14121E-01    -.13998E-01    -.12268E+03     .18281E+02     .29994E+01         .000      .000
   1.120     .45346E-01     .45754E-02    -.42723E+02     .18220E+01     .32177E+01         .000      .000
   1.130     .77850E-01     .23730E-01     .49394E+02    -.15768E+02     .32498E+01         .000      .000
   1.140     .10970E+00     .41398E-01     .13149E+03    -.30141E+02     .30921E+01         .000      .000
   1.150     .13906E+00     .55920E-01     .18584E+03    -.38490E+02     .27450E+01         .000      .000
   1.160     .16396E+00     .66496E-01     .20748E+03    -.40618E+02     .22037E+01         .000      .000
   1.170     .18261E+00     .73188E-01     .20245E+03    -.38126E+02     .15054E+01         .000      .000
   1.180     .19364E+00     .76656E-01     .18212E+03    -.33415E+02     .67873E+00         .000      .000
   1.190     .19597E+00     .77834E-01     .16144E+03    -.29506E+02    -.21245E+00         .000      .000
   1.200     .18946E+00     .77493E-01     .15472E+03    -.28898E+02    -.10821E+01         .000      .000
   1.210     .17436E+00     .75827E-01     .16822E+03    -.32222E+02    -.19442E+01         .000      .000
   1.220     .15046E+00     .72309E-01     .19752E+03    -.37975E+02    -.28421E+01         .000      .000
   1.230     .11751E+00     .65855E-01     .22616E+03    -.42419E+02    -.37398E+01         .000      .000
   1.240     .75907E-01     .55417E-01     .23257E+03    -.41664E+02    -.45630E+01         .000      .000
   1.250     .26831E-01     .40724E-01     .20797E+03    -.35169E+02    -.52124E+01         .000      .000
   1.260    -.27426E-01     .22405E-01     .16166E+03    -.25460E+02    -.55885E+01         .000      .000
   1.270    -.83925E-01     .14913E-02     .10762E+03    -.15075E+02    -.56613E+01         .000      .000
   1.280    -.13976E+00    -.21068E-01     .53689E+02    -.50243E+01    -.54682E+01         .000      .000
   1.290    -.19264E+00    -.44590E-01    -.11837E+01     .54107E+01    -.50817E+01         .000      .000
   1.300    -.24090E+00    -.68515E-01    -.64836E+02     .17962E+02    -.45461E+01         .000      .000
   1.310    -.28306E+00    -.92025E-01    -.14436E+03     .33669E+02    -.38597E+01         .000      .000
   1.320    -.31754E+00    -.11373E+00    -.23703E+03     .51309E+02    -.30081E+01         .000      .000
   1.330    -.34260E+00    -.13174E+00    -.32816E+03     .67549E+02    -.19717E+01         .000      .000
   1.340    -.35647E+00    -.14415E+00    -.39856E+03     .78794E+02    -.78383E+00         .000      .000
   1.350    -.35800E+00    -.14959E+00    -.43407E+03     .82843E+02     .48920E+00         .000      .000
   1.360    -.34660E+00    -.14760E+00    -.43091E+03     .79657E+02     .17878E+01         .000      .000
   1.370    -.32248E+00    -.13858E+00    -.39594E+03     .71032E+02     .30158E+01         .000      .000
   1.380    -.28687E+00    -.12354E+00    -.34049E+03     .59253E+02     .40696E+01         .000      .000
   1.390    -.24215E+00    -.10375E+00    -.27604E+03     .46521E+02     .48055E+01         .000      .000
   1.400    -.19231E+00    -.80397E-01    -.21190E+03     .34448E+02     .50756E+01         .000      .000
   1.410    -.14206E+00    -.54367E-01    -.15122E+03     .23169E+02     .49190E+01         .000      .000
   1.420    -.94703E-01    -.26134E-01    -.87502E+02     .10714E+02     .45308E+01         .000      .000
   1.430    -.51775E-01     .39971E-02    -.13860E+01    -.73435E+01     .40419E+01         .000      .000
   1.440    -.14270E-01     .35084E-01     .12994E+03    -.34817E+02     .34311E+01         .000      .000
   1.450     .16192E-01     .64531E-01     .30336E+03    -.68892E+02     .26264E+01         .000      .000
   1.460     .37514E-01     .88168E-01     .47542E+03    -.99442E+02     .16030E+01         .000      .000
   1.470     .47870E-01     .10183E+00     .58904E+03    -.11608E+03     .46804E+00         .000      .000
   1.480     .47121E-01     .10313E+00     .61167E+03    -.11467E+03    -.59322E+00         .000      .000
   1.490     .36698E-01     .92170E-01     .54691E+03    -.97757E+02    -.14486E+01         .000      .000
   1.500     .19050E-01     .71029E-01     .42109E+03    -.71035E+02    -.20357E+01         .000      .000
   1.510    -.30867E-02     .42762E-01     .26250E+03    -.39583E+02    -.23456E+01         .000      .000
   1.520    -.26921E-01     .10694E-01     .91816E+02    -.69260E+01    -.23745E+01         .000      .000
   1.530    -.49745E-01    -.21908E-01    -.75370E+02     .24156E+02    -.21549E+01         .000      .000
   1.540    -.69380E-01    -.52053E-01    -.22595E+03     .51367E+02    -.17442E+01         .000      .000
   1.550    -.83987E-01    -.77224E-01    -.35161E+03     .73478E+02    -.11413E+01         .000      .000
   1.560    -.91671E-01    -.95420E-01    -.44898E+03     .89977E+02    -.37837E+00         .000      .000
   1.570    -.91451E-01    -.10504E+00    -.51203E+03     .99428E+02     .41477E+00         .000      .000
   1.580    -.83603E-01    -.10502E+00    -.53066E+03     .10000E+03     .11393E+01         .000      .000
   1.590    -.69071E-01    -.95157E-01    -.50115E+03     .91539E+02     .17424E+01         .000      .000
   1.600    -.49335E-01    -.76086E-01    -.42573E+03     .74512E+02     .21719E+01         .000      .000
   1.610    -.26265E-01    -.49209E-01    -.30423E+03     .48775E+02     .24119E+01         .000      .000
   1.620    -.16741E-02    -.16836E-01    -.13985E+03     .15443E+02     .24799E+01         .000      .000
   1.630     .22638E-01     .17730E-01     .51929E+02    -.21826E+02     .23413E+01         .000      .000
   1.640     .44314E-01     .50549E-01     .24593E+03    -.57862E+02     .19534E+01         .000      .000
   1.650     .61016E-01     .77640E-01     .41229E+03    -.86837E+02     .13608E+01         .000      .000
   1.660     .71067E-01     .95726E-01     .52240E+03    -.10374E+03     .63069E+00         .000      .000
   1.670     .73434E-01     .10297E+00     .56193E+03    -.10697E+03    -.15814E+00         .000      .000
   1.680     .67945E-01     .99169E-01     .53502E+03    -.98143E+02    -.93565E+00         .000      .000
   1.690     .54934E-01     .85449E-01     .45452E+03    -.79960E+02    -.16504E+01         .000      .000
   1.700     .35341E-01     .63834E-01     .33546E+03    -.55374E+02    -.22451E+01         .000      .000
   1.710     .10535E-01     .36931E-01     .19415E+03    -.27575E+02    -.26900E+01         .000      .000
   1.720    -.17825E-01     .75947E-02     .47652E+02     .20337E+00    -.29460E+01         .000      .000
   1.730    -.47664E-01    -.21420E-01    -.89458E+02     .25418E+02    -.29866E+01         .000      .000
   1.740    -.76886E-01    -.47710E-01    -.20697E+03     .46343E+02    -.28265E+01         .000      .000
   1.750    -.10348E+00    -.69353E-01    -.29771E+03     .61773E+02    -.24534E+01         .000      .000
   1.760    -.12522E+00    -.84984E-01    -.35776E+03     .71145E+02    -.18599E+01         .000      .000
   1.770    -.14013E+00    -.93810E-01    -.38509E+03     .74118E+02    -.11002E+01         .000      .000
   1.780    -.14696E+00    -.95641E-01    -.37842E+03     .70633E+02    -.26256E+00         .000      .000
   1.790    -.14543E+00    -.90969E-01    -.34219E+03     .62015E+02     .56108E+00         .000      .000
   1.800    -.13603E+00    -.80821E-01    -.28735E+03     .50562E+02     .12990E+01         .000      .000
   1.810    -.11981E+00    -.66391E-01    -.22355E+03     .37832E+02     .19280E+01         .000      .000
   1.820    -.97737E-01    -.48812E-01    -.15402E+03     .24077E+02     .24769E+01         .000      .000
   1.830    -.70584E-01    -.29192E-01    -.77803E+02     .90151E+01     .29324E+01         .000      .000
