


 TIME HISTORY FOR STORY NO.  6



    TIME   DISPLACEMENT    STORY DRIFT    STORY SHEAR   ACCELERATION     VELOCITY          DAMAGE    DAMAGE
                                                                                          BEAM-SLAB  COL-WALL

    .000     .00000E+00     .00000E+00     .00000E+00     .00000E+00     .00000E+00         .000      .000
    .010    -.12965E-05    -.41809E-09    -.22716E-05     .10948E-03    -.24725E-03         .000      .000
    .020    -.50167E-05    -.72093E-08    -.11076E-02     .60325E-03    -.52287E-03         .000      .000
    .030    -.11782E-04     .69194E-07    -.61247E-02     .18214E-02    -.80729E-03         .000      .000
    .040    -.21176E-04     .60818E-06    -.66898E-02     .13306E-02    -.10968E-02         .000      .000
    .050    -.33711E-04     .18766E-05     .13093E-01    -.36904E-02    -.13846E-02         .000      .000
    .060    -.48790E-04     .33590E-05     .53468E-01    -.11990E-01    -.16476E-02         .000      .000
    .070    -.66712E-04     .38815E-05     .96896E-01    -.19857E-01    -.19244E-02         .000      .000
    .080    -.87463E-04     .22913E-05     .12937E+00    -.25043E-01    -.22564E-02         .000      .000
    .090    -.11216E-03    -.22257E-05     .14191E+00    -.25949E-01    -.26838E-02         .000      .000
    .100    -.14183E-03    -.99597E-05     .12789E+00    -.21465E-01    -.33172E-02         .000      .000
    .110    -.17898E-03    -.20447E-04     .88130E-01    -.12430E-01    -.40949E-02         .000      .000
    .120    -.22329E-03    -.32468E-04     .35663E-01    -.20226E-02    -.47429E-02         .000      .000
    .130    -.27283E-03    -.44409E-04    -.57127E-02     .44403E-02    -.50911E-02         .000      .000
    .140    -.32460E-03    -.55068E-04    -.42678E-02     .12054E-02    -.52883E-02         .000      .000
    .150    -.37823E-03    -.64903E-04     .47474E-01    -.10784E-01    -.53726E-02         .000      .000
    .160    -.43140E-03    -.76211E-04     .10961E+00    -.21621E-01    -.52577E-02         .000      .000
    .170    -.48322E-03    -.91407E-04     .12839E+00    -.22102E-01    -.50937E-02         .000      .000
    .180    -.53303E-03    -.11126E-03     .88263E-01    -.11500E-01    -.48570E-02         .000      .000
    .190    -.57957E-03    -.13489E-03    -.45520E-02     .86248E-02    -.43829E-02         .000      .000
    .200    -.61850E-03    -.16013E-03    -.13768E+00     .34949E-01    -.32545E-02         .000      .000
    .210    -.64163E-03    -.18367E-03    -.27522E+00     .59030E-01    -.12217E-02         .000      .000
    .220    -.64130E-03    -.20240E-03    -.36758E+00     .72008E-01     .12998E-02         .000      .000
    .230    -.61649E-03    -.21530E-03    -.40163E+00     .75237E-01     .35672E-02         .000      .000
    .240    -.57386E-03    -.22367E-03    -.43623E+00     .83912E-01     .46693E-02         .000      .000
    .250    -.52530E-03    -.22823E-03    -.55317E+00     .11183E+00     .51166E-02         .000      .000
    .260    -.47168E-03    -.22567E-03    -.75769E+00     .15331E+00     .55143E-02         .000      .000
    .270    -.41673E-03    -.20843E-03    -.92271E+00     .17724E+00     .53827E-02         .000      .000
    .280    -.36514E-03    -.17003E-03    -.87007E+00     .15273E+00     .49113E-02         .000      .000
    .290    -.32005E-03    -.11142E-03    -.56919E+00     .84467E-01     .39829E-02         .000      .000
    .300    -.28668E-03    -.40317E-04    -.11456E+00    -.73869E-02     .27008E-02         .000      .000
    .310    -.26554E-03     .32709E-04     .41019E+00    -.10855E+00     .15715E-02         .000      .000
    .320    -.25713E-03     .95818E-04     .92332E+00    -.20217E+00    -.11289E-03         .000      .000
    .330    -.27429E-03     .13733E-03     .13235E+01    -.26734E+00    -.37331E-02         .000      .000
    .340    -.33728E-03     .14816E-03     .14886E+01    -.27993E+00    -.89892E-02         .000      .000
    .350    -.45530E-03     .12605E-03     .13255E+01    -.22858E+00    -.14616E-01         .000      .000
    .360    -.63196E-03     .79530E-04     .94008E+00    -.14799E+00    -.20970E-01         .000      .000
    .370    -.87305E-03     .23012E-04     .63757E+00    -.10036E+00    -.26848E-01         .000      .000
    .380    -.11586E-02    -.34976E-04     .60227E+00    -.10756E+00    -.29640E-01         .000      .000
    .390    -.14539E-02    -.95814E-04     .80011E+00    -.15739E+00    -.28838E-01         .000      .000
    .400    -.17264E-02    -.16811E-03     .11785E+01    -.23873E+00    -.25325E-01         .000      .000
    .410    -.19568E-02    -.26851E-03     .15424E+01    -.29867E+00    -.20708E-01         .000      .000
    .420    -.21433E-02    -.41612E-03     .14366E+01    -.24120E+00    -.16880E-01         .000      .000
    .430    -.23006E-02    -.61537E-03     .48534E+00    -.11317E-01    -.14899E-01         .000      .000
    .440    -.24499E-02    -.84317E-03    -.12519E+01     .35267E+00    -.15548E-01         .000      .000
    .450    -.26156E-02    -.10521E-02    -.32782E+01     .73626E+00    -.17475E-01         .000      .000
    .460    -.27993E-02    -.11864E-02    -.48846E+01     .99978E+00    -.19416E-01         .000      .000
    .470    -.30127E-02    -.12026E-02    -.53987E+01     .10240E+01    -.24005E-01         .000      .000
    .480    -.32878E-02    -.10888E-02    -.44418E+01     .76339E+00    -.31095E-01         .000      .000
    .490    -.36337E-02    -.87443E-03    -.22567E+01     .29925E+00    -.37865E-01         .000      .000
    .500    -.40434E-02    -.61761E-03     .51334E+00    -.24200E+00    -.44087E-01         .000      .000
    .510    -.45201E-02    -.38464E-03     .33606E+01    -.77318E+00    -.51686E-01         .000      .000
    .520    -.50711E-02    -.24284E-03     .57608E+01    -.11833E+01    -.57457E-01         .000      .000
    .530    -.56370E-02    -.24893E-03     .69856E+01    -.13368E+01    -.53549E-01         .000      .000
    .540    -.60963E-02    -.42514E-03     .67258E+01    -.12213E+01    -.35947E-01         .000      .000
    .550    -.63104E-02    -.75652E-03     .54569E+01    -.95444E+00    -.47391E-02         .000      .000
    .560    -.61594E-02    -.12195E-02     .35290E+01    -.56293E+00     .36001E-01         .000      .000
    .570    -.55729E-02    -.17935E-02     .47963E+00     .80074E-01     .82038E-01         .000      .000
    .580    -.45153E-02    -.24348E-02    -.43091E+01     .10734E+01     .12907E+00         .000      .000
    .590    -.29977E-02    -.30469E-02    -.10691E+02     .23348E+01     .17418E+00         .000      .000
    .600    -.10231E-02    -.34833E-02    -.17588E+02     .36165E+01     .22175E+00         .000      .000
    .610     .14519E-02    -.35781E-02    -.23431E+02     .46021E+01     .27357E+00         .000      .000
    .620     .44513E-02    -.31886E-02    -.26481E+02     .49637E+01     .32619E+00         .000      .000
    .630     .79507E-02    -.22457E-02    -.25521E+02     .45339E+01     .37133E+00         .000      .000
    .640     .11821E-01    -.78723E-03    -.20809E+02     .34554E+01     .39945E+00         .000      .000
    .650     .15863E-01     .10626E-02    -.13850E+02     .20577E+01     .40479E+00         .000      .000
    .660     .19819E-01     .31507E-02    -.62441E+01     .62039E+00     .38098E+00         .000      .000
    .670     .23367E-01     .53411E-02     .12351E+01    -.76030E+00     .32241E+00         .000      .000
    .680     .26161E-01     .75249E-02     .85743E+01    -.21111E+01     .23197E+00         .000      .000
    .690     .27940E-01     .96095E-02     .16087E+02    -.35130E+01     .12179E+00         .000      .000
    .700     .28563E-01     .11505E-01     .24467E+02    -.51270E+01     .14456E-02         .000      .000
    .710     .27954E-01     .13089E-01     .34530E+02    -.70872E+01    -.12355E+00         .000      .000
    .720     .26111E-01     .14164E-01     .45805E+02    -.91957E+01    -.24282E+00         .000      .000
    .730     .23156E-01     .14461E-01     .55716E+02    -.10871E+02    -.34441E+00         .000      .000
    .740     .19277E-01     .13726E-01     .60986E+02    -.11510E+02    -.42951E+00         .000      .000
    .750     .14597E-01     .11810E-01     .59292E+02    -.10730E+02    -.50510E+00         .000      .000
    .760     .92313E-02     .87181E-02     .49202E+02    -.82999E+01    -.56374E+00         .000      .000
    .770     .34281E-02     .46565E-02     .30477E+02    -.42956E+01    -.59077E+00         .000      .000
    .780    -.24497E-02     .53953E-04     .59533E+01     .53621E+00    -.57789E+00         .000      .000
    .790    -.79809E-02    -.45275E-02    -.18694E+02     .50401E+01    -.52078E+00         .000      .000
    .800    -.12707E-01    -.85749E-02    -.38521E+02     .84120E+01    -.41649E+00         .000      .000
    .810    -.16179E-01    -.11748E-01    -.51624E+02     .10459E+02    -.27277E+00         .000      .000
    .820    -.18090E-01    -.13889E-01    -.58346E+02     .11341E+02    -.10721E+00         .000      .000
    .830    -.18296E-01    -.14984E-01    -.60343E+02     .11448E+02     .66706E-01         .000      .000
    .840    -.16768E-01    -.15101E-01    -.60204E+02     .11297E+02     .23727E+00         .000      .000
    .850    -.13594E-01    -.14292E-01    -.59740E+02     .11135E+02     .39480E+00         .000      .000
    .860    -.89577E-02    -.12545E-01    -.58459E+02     .10746E+02     .52642E+00         .000      .000
    .870    -.31968E-02    -.98159E-02    -.54270E+02     .96925E+01     .61860E+00         .000      .000
    .880     .32662E-02    -.61076E-02    -.45098E+02     .76207E+01     .66633E+00         .000      .000
    .890     .99482E-02    -.15349E-02    -.29864E+02     .43882E+01     .65964E+00         .000      .000
    .900     .16253E-01     .36495E-02    -.85226E+01     .49946E-01     .59128E+00         .000      .000
    .910     .21579E-01     .90434E-02     .17454E+02    -.50079E+01     .46464E+00         .000      .000
    .920     .25361E-01     .14131E-01     .44759E+02    -.10085E+02     .28290E+00         .000      .000
    .930     .27096E-01     .18378E-01     .69724E+02    -.14517E+02     .59318E-01         .000      .000
    .940     .26510E-01     .21313E-01     .89445E+02    -.17809E+02    -.17545E+00         .000      .000
    .950     .23683E-01     .22588E-01     .10195E+03    -.19671E+02    -.38153E+00         .000      .000
    .960     .19080E-01     .22002E-01     .10667E+03    -.20085E+02    -.52743E+00         .000      .000
    .970     .13288E-01     .19478E-01     .10379E+03    -.19073E+02    -.62731E+00         .000      .000
    .980     .65541E-02     .15026E-01     .92258E+02    -.16295E+02    -.72087E+00         .000      .000
    .990    -.11171E-02     .87736E-02     .68699E+02    -.11009E+02    -.81040E+00         .000      .000
   1.000    -.95519E-02     .11361E-02     .30516E+02    -.29557E+01    -.86952E+00         .000      .000
   1.010    -.18267E-01    -.70342E-02    -.17637E+02     .64443E+01    -.85745E+00         .000      .000
   1.020    -.26330E-01    -.14601E-01    -.63361E+02     .14570E+02    -.73526E+00         .000      .000
   1.030    -.32635E-01    -.20564E-01    -.94683E+02     .19411E+02    -.51241E+00         .000      .000
   1.040    -.36399E-01    -.24410E-01    -.10693E+03     .20591E+02    -.23554E+00         .000      .000
   1.050    -.37333E-01    -.26176E-01    -.10422E+03     .19357E+02     .45939E-01         .000      .000
   1.060    -.35560E-01    -.26238E-01    -.96170E+02     .17688E+02     .30403E+00         .000      .000
   1.070    -.31340E-01    -.24948E-01    -.90840E+02     .16832E+02     .53606E+00         .000      .000
   1.080    -.24911E-01    -.22396E-01    -.89324E+02     .16571E+02     .74640E+00         .000      .000
   1.090    -.16454E-01    -.18442E-01    -.86439E+02     .15681E+02     .94371E+00         .000      .000
   1.100    -.60700E-02    -.12946E-01    -.75512E+02     .12946E+02     .11306E+01         .000      .000
   1.110     .60520E-02    -.59992E-02    -.52577E+02     .78348E+01     .12855E+01         .000      .000
   1.120     .19434E-01     .19609E-02    -.18310E+02     .78085E+00     .13790E+01         .000      .000
   1.130     .33364E-01     .10170E-01     .21169E+02    -.67575E+01     .13928E+01         .000      .000
   1.140     .47016E-01     .17742E-01     .56354E+02    -.12917E+02     .13252E+01         .000      .000
   1.150     .59596E-01     .23966E-01     .79646E+02    -.16496E+02     .11764E+01         .000      .000
   1.160     .70267E-01     .28498E-01     .88921E+02    -.17408E+02     .94444E+00         .000      .000
   1.170     .78261E-01     .31366E-01     .86762E+02    -.16340E+02     .64516E+00         .000      .000
   1.180     .82988E-01     .32853E-01     .78053E+02    -.14321E+02     .29089E+00         .000      .000
   1.190     .83988E-01     .33358E-01     .69190E+02    -.12645E+02    -.91049E-01         .000      .000
   1.200     .81199E-01     .33211E-01     .66309E+02    -.12385E+02    -.46374E+00         .000      .000
   1.210     .74724E-01     .32497E-01     .72095E+02    -.13809E+02    -.83324E+00         .000      .000
   1.220     .64482E-01     .30990E-01     .84650E+02    -.16275E+02    -.12180E+01         .000      .000
   1.230     .50361E-01     .28223E-01     .96927E+02    -.18180E+02    -.16028E+01         .000      .000
   1.240     .32532E-01     .23750E-01     .99674E+02    -.17856E+02    -.19556E+01         .000      .000
   1.250     .11499E-01     .17453E-01     .89130E+02    -.15072E+02    -.22339E+01         .000      .000
   1.260    -.11754E-01     .96020E-02     .69284E+02    -.10911E+02    -.23951E+01         .000      .000
   1.270    -.35968E-01     .63912E-03     .46125E+02    -.64609E+01    -.24263E+01         .000      .000
   1.280    -.59899E-01    -.90290E-02     .23010E+02    -.21533E+01    -.23435E+01         .000      .000
   1.290    -.82562E-01    -.19110E-01    -.50728E+00     .23189E+01    -.21779E+01         .000      .000
   1.300    -.10324E+00    -.29364E-01    -.27787E+02     .76982E+01    -.19483E+01         .000      .000
   1.310    -.12131E+00    -.39439E-01    -.61867E+02     .14430E+02    -.16542E+01         .000      .000
   1.320    -.13609E+00    -.48741E-01    -.10159E+03     .21990E+02    -.12892E+01         .000      .000
   1.330    -.14683E+00    -.56460E-01    -.14064E+03     .28949E+02    -.84503E+00         .000      .000
   1.340    -.15277E+00    -.61778E-01    -.17081E+03     .33769E+02    -.33593E+00         .000      .000
   1.350    -.15343E+00    -.64111E-01    -.18603E+03     .35504E+02     .20966E+00         .000      .000
   1.360    -.14854E+00    -.63256E-01    -.18468E+03     .34139E+02     .76620E+00         .000      .000
   1.370    -.13820E+00    -.59391E-01    -.16969E+03     .30442E+02     .12925E+01         .000      .000
   1.380    -.12294E+00    -.52947E-01    -.14593E+03     .25394E+02     .17441E+01         .000      .000
   1.390    -.10378E+00    -.44464E-01    -.11830E+03     .19938E+02     .20595E+01         .000      .000
   1.400    -.82420E-01    -.34456E-01    -.90815E+02     .14764E+02     .21753E+01         .000      .000
   1.410    -.60883E-01    -.23300E-01    -.64808E+02     .99296E+01     .21081E+01         .000      .000
   1.420    -.40587E-01    -.11200E-01    -.37501E+02     .45918E+01     .19418E+01         .000      .000
   1.430    -.22189E-01     .17131E-02    -.59400E+00    -.31472E+01     .17322E+01         .000      .000
   1.440    -.61156E-02     .15036E-01     .55688E+02    -.14922E+02     .14705E+01         .000      .000
   1.450     .69394E-02     .27656E-01     .13001E+03    -.29525E+02     .11256E+01         .000      .000
   1.460     .16078E-01     .37786E-01     .20375E+03    -.42618E+02     .68698E+00         .000      .000
   1.470     .20516E-01     .43639E-01     .25245E+03    -.49749E+02     .20059E+00         .000      .000
   1.480     .20195E-01     .44197E-01     .26214E+03    -.49144E+02    -.25424E+00         .000      .000
   1.490     .15728E-01     .39501E-01     .23439E+03    -.41896E+02    -.62085E+00         .000      .000
   1.500     .81642E-02     .30441E-01     .18047E+03    -.30444E+02    -.87246E+00         .000      .000
   1.510    -.13229E-02     .18326E-01     .11250E+03    -.16964E+02    -.10053E+01         .000      .000
   1.520    -.11538E-01     .45833E-02     .39350E+02    -.29683E+01    -.10177E+01         .000      .000
   1.530    -.21319E-01    -.93891E-02    -.32302E+02     .10352E+02    -.92355E+00         .000      .000
   1.540    -.29734E-01    -.22308E-01    -.96835E+02     .22014E+02    -.74749E+00         .000      .000
   1.550    -.35994E-01    -.33096E-01    -.15069E+03     .31491E+02    -.48912E+00         .000      .000
   1.560    -.39288E-01    -.40894E-01    -.19242E+03     .38562E+02    -.16216E+00         .000      .000
   1.570    -.39193E-01    -.45018E-01    -.21944E+03     .42612E+02     .17776E+00         .000      .000
   1.580    -.35830E-01    -.45010E-01    -.22743E+03     .42859E+02     .48828E+00         .000      .000
   1.590    -.29602E-01    -.40782E-01    -.21478E+03     .39231E+02     .74674E+00         .000      .000
   1.600    -.21143E-01    -.32608E-01    -.18245E+03     .31934E+02     .93081E+00         .000      .000
   1.610    -.11257E-01    -.21090E-01    -.13038E+03     .20904E+02     .10337E+01         .000      .000
   1.620    -.71747E-03    -.72154E-02    -.59934E+02     .66184E+01     .10628E+01         .000      .000
   1.630     .97018E-02     .75985E-02     .22255E+02    -.93542E+01     .10034E+01         .000      .000
   1.640     .18992E-01     .21664E-01     .10540E+03    -.24798E+02     .83716E+00         .000      .000
   1.650     .26150E-01     .33274E-01     .17670E+03    -.37216E+02     .58322E+00         .000      .000
   1.660     .30457E-01     .41025E-01     .22388E+03    -.44460E+02     .27030E+00         .000      .000
   1.670     .31472E-01     .44129E-01     .24083E+03    -.45844E+02    -.67776E-01         .000      .000
   1.680     .29119E-01     .42501E-01     .22929E+03    -.42061E+02    -.40099E+00         .000      .000
   1.690     .23543E-01     .36621E-01     .19479E+03    -.34269E+02    -.70730E+00         .000      .000
   1.700     .15146E-01     .27358E-01     .14377E+03    -.23732E+02    -.96220E+00         .000      .000
   1.710     .45152E-02     .15827E-01     .83205E+02    -.11818E+02    -.11529E+01         .000      .000
   1.720    -.76395E-02     .32549E-02     .20422E+02     .87159E-01    -.12626E+01         .000      .000
   1.730    -.20427E-01    -.91798E-02    -.38339E+02     .10893E+02    -.12800E+01         .000      .000
   1.740    -.32951E-01    -.20447E-01    -.88702E+02     .19861E+02    -.12114E+01         .000      .000
   1.750    -.44350E-01    -.29723E-01    -.12759E+03     .26474E+02    -.10515E+01         .000      .000
   1.760    -.53665E-01    -.36422E-01    -.15332E+03     .30491E+02    -.79711E+00         .000      .000
   1.770    -.60054E-01    -.40204E-01    -.16504E+03     .31765E+02    -.47149E+00         .000      .000
   1.780    -.62984E-01    -.40989E-01    -.16218E+03     .30271E+02    -.11253E+00         .000      .000
   1.790    -.62325E-01    -.38987E-01    -.14665E+03     .26578E+02     .24046E+00         .000      .000
   1.800    -.58298E-01    -.34638E-01    -.12315E+03     .21669E+02     .55672E+00         .000      .000
   1.810    -.51347E-01    -.28453E-01    -.95807E+02     .16214E+02     .82628E+00         .000      .000
   1.820    -.41887E-01    -.20919E-01    -.66008E+02     .10319E+02     .10615E+01         .000      .000
   1.830    -.30250E-01    -.12511E-01    -.33344E+02     .38636E+01     .12567E+01         .000      .000
