


 TIME HISTORY FOR STORY NO.  6



    TIME   DISPLACEMENT    STORY DRIFT    STORY SHEAR   ACCELERATION     VELOCITY          DAMAGE    DAMAGE
                                                                                          BEAM-SLAB  COL-WALL

    .000     .00000E+00     .00000E+00     .00000E+00     .00000E+00     .00000E+00         .000      .000
    .010    -.24560E-05    -.13938E-08    -.22581E-04     .28768E-04    -.21441E-04         .000      .000
    .020    -.44964E-06    -.54559E-08    -.26958E-02     .82264E-03    -.84313E-04         .000      .000
    .030    -.40787E-05     .21185E-06    -.89064E-03    -.45608E-03    -.13148E-03         .000      .000
    .040    -.33078E-05     .48150E-06     .12053E-01    -.24643E-02    -.24247E-03         .000      .000
    .050    -.92401E-05     .32247E-06     .83702E-02    -.10947E-02    -.44996E-03         .000      .000
    .060    -.12688E-04     .54671E-07     .50703E-02    -.43272E-03    -.77003E-03         .000      .000
    .070    -.24748E-04    -.98040E-07     .33388E-02    -.39988E-03    -.11248E-02         .000      .000
    .080    -.35431E-04     .29428E-07     .12352E-01    -.22490E-02    -.15509E-02         .000      .000
    .090    -.56032E-04     .34504E-06     .27422E-01    -.57785E-02    -.20597E-02         .000      .000
    .100    -.77132E-04     .61140E-06     .61462E-01    -.12585E-01    -.27174E-02         .000      .000
    .110    -.11079E-03    -.40417E-07     .97624E-01    -.19287E-01    -.35014E-02         .000      .000
    .120    -.14772E-03    -.24265E-05     .13450E+00    -.25432E-01    -.44507E-02         .000      .000
    .130    -.20011E-03    -.72993E-05     .15894E+00    -.29367E-01    -.54919E-02         .000      .000
    .140    -.25774E-03    -.14992E-04     .18216E+00    -.33007E-01    -.65842E-02         .000      .000
    .150    -.32917E-03    -.25897E-04     .19732E+00    -.35822E-01    -.68943E-02         .000      .000
    .160    -.39486E-03    -.40235E-04     .21867E+00    -.40186E-01    -.69729E-02         .000      .000
    .170    -.47377E-03    -.58730E-04     .24845E+00    -.46142E-01    -.85956E-02         .000      .000
    .180    -.57166E-03    -.83277E-04     .26455E+00    -.43925E-01    -.11671E-01         .000      .000
    .190    -.70862E-03    -.11554E-03     .14384E+00    -.10242E-01    -.15175E-01         .000      .000
    .200    -.87423E-03    -.15077E-03    -.88977E-01     .36551E-01    -.18412E-01         .000      .000
    .210    -.10736E-02    -.17943E-03    -.20439E+00     .45382E-01    -.20682E-01         .000      .000
    .220    -.12849E-02    -.19730E-03    -.12235E-01    -.77482E-02    -.22062E-01         .000      .000
    .230    -.15162E-02    -.21150E-03     .40888E+00    -.95171E-01    -.23859E-01         .000      .000
    .240    -.17655E-02    -.23613E-03     .85377E+00    -.17314E+00    -.26655E-01         .000      .000
    .250    -.20511E-02    -.28501E-03     .10769E+01    -.19721E+00    -.29958E-01         .000      .000
    .260    -.23599E-02    -.36370E-03     .96061E+00    -.15586E+00    -.31856E-01         .000      .000
    .270    -.26739E-02    -.46676E-03     .58932E+00    -.78716E-01    -.29493E-01         .000      .000
    .280    -.29376E-02    -.58266E-03     .20905E+00    -.14947E-01    -.23475E-01         .000      .000
    .290    -.31402E-02    -.70395E-03    -.16223E-01     .15519E-01    -.16510E-01         .000      .000
    .300    -.32704E-02    -.83328E-03    -.20841E+00     .57883E-01    -.10291E-01         .000      .000
    .310    -.33564E-02    -.97605E-03    -.77082E+00     .19254E+00    -.71671E-02         .000      .000
    .320    -.34223E-02    -.11228E-02    -.18622E+01     .42534E+00    -.66432E-02         .000      .000
    .330    -.34827E-02    -.12441E-02    -.32092E+01     .68110E+00    -.41854E-02         .000      .000
    .340    -.34838E-02    -.13006E-02    -.42518E+01     .84110E+00     .48949E-02         .000      .000
    .350    -.33451E-02    -.12618E-02    -.43568E+01     .78522E+00     .25843E-01         .000      .000
    .360    -.29310E-02    -.11284E-02    -.31923E+01     .48383E+00     .57576E-01         .000      .000
    .370    -.22123E-02    -.94490E-03    -.11945E+01     .72615E-01     .83764E-01         .000      .000
    .380    -.13387E-02    -.78535E-03     .41734E+00    -.16607E+00     .85197E-01         .000      .000
    .390    -.59473E-03    -.71038E-03    -.97413E-01     .10319E+00     .60850E-01         .000      .000
    .400    -.14063E-03    -.69664E-03    -.35817E+01     .92286E+00     .30769E-01         .000      .000
    .410     .80741E-04    -.60056E-03    -.80621E+01     .17268E+01     .18406E-01         .000      .000
    .420     .28047E-03    -.24006E-03    -.92142E+01     .16474E+01     .21666E-01         .000      .000
    .430     .50488E-03     .43649E-03    -.41506E+01     .33985E+00     .22219E-01         .000      .000
    .440     .66004E-03     .12563E-02     .52906E+01    -.15564E+01     .37124E-02         .000      .000
    .450     .47793E-03     .19199E-02     .13770E+02    -.29539E+01    -.44794E-01         .000      .000
    .460    -.30503E-03     .22042E-02     .17281E+02    -.32755E+01    -.11397E+00         .000      .000
    .470    -.17875E-02     .20736E-02     .15593E+02    -.26933E+01    -.17910E+00         .000      .000
    .480    -.38166E-02     .16520E-02     .11443E+02    -.18532E+01    -.22338E+00         .000      .000
    .490    -.61738E-02     .11076E-02     .86023E+01    -.14668E+01    -.24351E+00         .000      .000
    .500    -.86065E-02     .51917E-03     .92657E+01    -.17904E+01    -.23954E+00         .000      .000
    .510    -.10928E-01    -.18410E-03     .12251E+02    -.24158E+01    -.22436E+00         .000      .000
    .520    -.13127E-01    -.11577E-02     .14296E+02    -.26632E+01    -.21898E+00         .000      .000
    .530    -.15362E-01    -.25264E-02     .12117E+02    -.19387E+01    -.22982E+00         .000      .000
    .540    -.17742E-01    -.42798E-02     .36828E+01     .26439E-01    -.24608E+00         .000      .000
    .550    -.20212E-01    -.62002E-02    -.99010E+01     .27840E+01    -.24127E+00         .000      .000
    .560    -.22395E-01    -.79051E-02    -.23604E+02     .51942E+01    -.18521E+00         .000      .000
    .570    -.23749E-01    -.90297E-02    -.31311E+02     .61500E+01    -.79220E-01         .000      .000
    .580    -.23945E-01    -.94322E-02    -.29951E+02     .53522E+01     .37044E-01         .000      .000
    .590    -.23112E-01    -.92770E-02    -.22265E+02     .36808E+01     .12274E+00         .000      .000
    .600    -.21698E-01    -.89018E-02    -.15655E+02     .26871E+01     .14663E+00         .000      .000
    .610    -.20411E-01    -.85266E-02    -.16219E+02     .32687E+01     .10103E+00         .000      .000
    .620    -.19806E-01    -.80557E-02    -.23404E+02     .49043E+01     .16650E-01         .000      .000
    .630    -.20091E-01    -.71359E-02    -.30602E+02     .60716E+01    -.72155E-01         .000      .000
    .640    -.21196E-01    -.54021E-02    -.28820E+02     .50457E+01    -.14554E+00         .000      .000
    .650    -.22903E-01    -.27858E-02    -.11917E+02     .96880E+00    -.18924E+00         .000      .000
    .660    -.24928E-01     .29010E-03     .18595E+02    -.53888E+01    -.21652E+00         .000      .000
    .670    -.27099E-01     .29870E-02     .53737E+02    -.12014E+02    -.20278E+00         .000      .000
    .680    -.28777E-01     .43421E-02     .81183E+02    -.16516E+02    -.12660E+00         .000      .000
    .690    -.29691E-01     .36316E-02     .90731E+02    -.17202E+02    -.68101E-01         .000      .000
    .700    -.30401E-01     .61165E-03     .77924E+02    -.13453E+02    -.87771E-01         .000      .000
    .710    -.31528E-01    -.44155E-02     .40801E+02    -.50195E+01    -.13190E+00         .000      .000
    .720    -.32826E-01    -.10465E-01    -.16610E+02     .66403E+01    -.11348E+00         .000      .000
    .730    -.33534E-01    -.15914E-01    -.74698E+02     .16919E+02    -.18136E-01         .000      .000
    .740    -.33025E-01    -.19217E-01    -.10739E+03     .21179E+02     .12533E+00         .000      .000
    .750    -.30943E-01    -.19790E-01    -.10559E+03     .19048E+02     .29497E+00         .000      .000
    .760    -.26974E-01    -.18107E-01    -.81567E+02     .13649E+02     .51123E+00         .000      .000
    .770    -.20567E-01    -.15088E-01    -.51982E+02     .79322E+01     .77354E+00         .000      .000
    .780    -.11635E-01    -.11588E-01    -.26477E+02     .33788E+01     .99680E+00         .000      .000
    .790    -.10628E-02    -.82601E-02    -.11407E+02     .12761E+01     .10912E+01         .000      .000
    .800     .97788E-02    -.54417E-02    -.14707E+02     .31162E+01     .10631E+01         .000      .000
    .810     .20125E-01    -.28165E-02    -.37347E+02     .82448E+01     .10121E+01         .000      .000
    .820     .30214E-01     .66136E-03    -.61969E+02     .12288E+02     .10172E+01         .000      .000
    .830     .40603E-01     .60806E-02    -.60915E+02     .10049E+02     .10614E+01         .000      .000
    .840     .51168E-01     .13546E-01    -.20863E+02     .44579E+00     .10244E+01         .000      .000
    .850     .60450E-01     .21826E-01     .43498E+02    -.12240E+02     .79735E+00         .000      .000
    .860     .66469E-01     .29049E-01     .10142E+03    -.21914E+02     .37863E+00         .000      .000
    .870     .67644E-01     .33824E-01     .13026E+03    -.25341E+02    -.15327E+00         .000      .000
    .880     .63413E-01     .35866E-01     .13055E+03    -.23979E+02    -.68354E+00         .000      .000
    .890     .54327E-01     .35727E-01     .11982E+03    -.21699E+02    -.11091E+01         .000      .000
    .900     .41797E-01     .34046E-01     .11574E+03    -.21499E+02    -.13656E+01         .000      .000
    .910     .27726E-01     .30971E-01     .12506E+03    -.23958E+02    -.14088E+01         .000      .000
    .920     .14337E-01     .26009E-01     .14146E+03    -.27188E+02    -.12368E+01         .000      .000
    .930     .33198E-02     .18272E-01     .14848E+03    -.27590E+02    -.96475E+00         .000      .000
    .940    -.54155E-02     .70034E-02     .12530E+03    -.21019E+02    -.82844E+00         .000      .000
    .950    -.14105E-01    -.77643E-02     .53318E+02    -.42374E+01    -.94777E+00         .000      .000
    .960    -.24606E-01    -.24505E-01    -.72378E+02     .22369E+02    -.11386E+01         .000      .000
    .970    -.35789E-01    -.39847E-01    -.22438E+03     .51177E+02    -.10076E+01         .000      .000
    .980    -.42907E-01    -.49432E-01    -.33794E+03     .68280E+02    -.32693E+00         .000      .000
    .990    -.41040E-01    -.50241E-01    -.34748E+03     .62871E+02     .73803E+00         .000      .000
   1.000    -.28384E-01    -.42868E-01    -.24483E+03     .37970E+02     .17358E+01         .000      .000
   1.010    -.81096E-02    -.31462E-01    -.99334E+02     .10484E+02     .22052E+01         .000      .000
   1.020     .13672E-01    -.20872E-01    -.83857E+01    -.15956E+01     .20654E+01         .000      .000
   1.030     .32241E-01    -.13220E-01    -.22960E+02     .71239E+01     .16377E+01         .000      .000
   1.040     .46705E-01    -.65725E-02    -.10892E+03     .25321E+02     .12875E+01         .000      .000
   1.050     .58541E-01     .32682E-02    -.17187E+03     .33419E+02     .10960E+01         .000      .000
   1.060     .68755E-01     .19159E-01    -.13039E+03     .18816E+02     .94175E+00         .000      .000
   1.070     .77092E-01     .40075E-01     .23255E+02    -.15295E+02     .70571E+00         .000      .000
   1.080     .82183E-01     .61497E-01     .22906E+03    -.54994E+02     .26942E+00         .000      .000
   1.090     .81522E-01     .77776E-01     .41112E+03    -.86215E+02    -.45003E+00         .000      .000
   1.100     .72354E-01     .84366E-01     .51208E+03    -.99396E+02    -.14155E+01         .000      .000
   1.110     .53050E-01     .79203E-01     .50158E+03    -.90585E+02    -.24293E+01         .000      .000
   1.120     .24615E-01     .63396E-01     .38809E+03    -.64047E+02    -.31921E+01         .000      .000
   1.130    -.93009E-02     .40756E-01     .22405E+03    -.31881E+02    -.35130E+01         .000      .000
   1.140    -.44400E-01     .15860E-01     .78905E+02    -.69407E+01    -.34644E+01         .000      .000
   1.150    -.78105E-01    -.82353E-02    -.77497E+01     .60843E+01    -.32707E+01         .000      .000
   1.160    -.10978E+00    -.30888E-01    -.51063E+02     .12978E+02    -.30628E+01         .000      .000
   1.170    -.13924E+00    -.52721E-01    -.97425E+02     .22954E+02    -.28147E+01         .000      .000
   1.180    -.16555E+00    -.73684E-01    -.17592E+03     .39503E+02    -.24095E+01         .000      .000
   1.190    -.18653E+00    -.92221E-01    -.27624E+03     .58673E+02    -.17368E+01         .000      .000
   1.200    -.19918E+00    -.10595E+00    -.36690E+03     .74074E+02    -.73512E+00         .000      .000
   1.210    -.20024E+00    -.11283E+00    -.42088E+03     .81265E+02     .56199E+00         .000      .000
   1.220    -.18750E+00    -.11188E+00    -.42595E+03     .78856E+02     .19913E+01         .000      .000
   1.230    -.16055E+00    -.10344E+00    -.38608E+03     .68628E+02     .33809E+01         .000      .000
   1.240    -.12058E+00    -.88928E-01    -.32201E+03     .55397E+02     .45626E+01         .000      .000
   1.250    -.70565E-01    -.70110E-01    -.26070E+03     .44178E+02     .53658E+01         .000      .000
   1.260    -.14705E-01    -.48177E-01    -.21719E+03     .36871E+02     .57368E+01         .000      .000
   1.270     .43259E-01    -.23373E-01    -.18757E+03     .31605E+02     .58335E+01         .000      .000
   1.280     .10182E+00     .47790E-02    -.14970E+03     .23114E+02     .58839E+01         .000      .000
   1.290     .16096E+00     .36664E-01    -.69286E+02     .46137E+01     .59390E+01         .000      .000
   1.300     .22011E+00     .71233E-01     .76033E+02    -.26434E+02     .58473E+01         .000      .000
   1.310     .27653E+00     .10513E+00     .26464E+03    -.62938E+02     .53459E+01         .000      .000
   1.320     .32485E+00     .13353E+00     .43288E+03    -.91300E+02     .41992E+01         .000      .000
   1.330     .35893E+00     .15250E+00     .51798E+03    -.10107E+03     .25808E+01         .000      .000
   1.340     .37659E+00     .16091E+00     .50073E+03    -.91950E+02     .99745E+00         .000      .000
   1.350     .37995E+00     .16078E+00     .42133E+03    -.74840E+02    -.27101E+00         .000      .000
   1.360     .37206E+00     .15546E+00     .35516E+03    -.64356E+02    -.12773E+01         .000      .000
   1.370     .35467E+00     .14672E+00     .34448E+03    -.64820E+02    -.22017E+01         .000      .000
   1.380     .32793E+00     .13372E+00     .35970E+03    -.67120E+02    -.31507E+01         .000      .000
   1.390     .29176E+00     .11476E+00     .34221E+03    -.60434E+02    -.40665E+01         .000      .000
   1.400     .24737E+00     .89511E-01     .26377E+03    -.41948E+02    -.47539E+01         .000      .000
   1.410     .19804E+00     .59647E-01     .13709E+03    -.15912E+02    -.50360E+01         .000      .000
   1.420     .14797E+00     .28050E-01    -.66216E+01     .11379E+02    -.49246E+01         .000      .000
   1.430     .10051E+00    -.22748E-02    -.13873E+03     .35091E+02    -.45248E+01         .000      .000
   1.440     .58247E-01    -.28939E-01    -.24529E+03     .53523E+02    -.38921E+01         .000      .000
   1.450     .23342E-01    -.50288E-01    -.32493E+03     .66765E+02    -.30584E+01         .000      .000
   1.460    -.23704E-02    -.65164E-01    -.37544E+03     .74137E+02    -.20600E+01         .000      .000
   1.470    -.17514E-01    -.72947E-01    -.39227E+03     .74956E+02    -.95855E+00         .000      .000
   1.480    -.21614E-01    -.73744E-01    -.37867E+03     .70481E+02     .12188E+00         .000      .000
   1.490    -.15679E-01    -.68241E-01    -.34605E+03     .63181E+02     .10225E+01         .000      .000
   1.500    -.19649E-02    -.57273E-01    -.30504E+03     .54829E+02     .16836E+01         .000      .000
   1.510     .17464E-01    -.41489E-01    -.25866E+03     .45412E+02     .21858E+01         .000      .000
   1.520     .41392E-01    -.21299E-01    -.19825E+03     .32568E+02     .25792E+01         .000      .000
   1.530     .68433E-01     .26981E-02    -.10687E+03     .13042E+02     .27877E+01         .000      .000
   1.540     .96002E-01     .28944E-01     .21232E+02    -.12924E+02     .26544E+01         .000      .000
   1.550     .11998E+00     .54666E-01     .16425E+03    -.39668E+02     .20618E+01         .000      .000
   1.560     .13586E+00     .76738E-01     .28581E+03    -.60281E+02     .10573E+01         .000      .000
   1.570     .14044E+00     .92920E-01     .36368E+03    -.72035E+02    -.15281E+00         .000      .000
   1.580     .13290E+00     .10238E+00     .40373E+03    -.77606E+02    -.13353E+01         .000      .000
   1.590     .11411E+00     .10515E+00     .42839E+03    -.81572E+02    -.24080E+01         .000      .000
   1.600     .84980E-01     .10109E+00     .45194E+03    -.85544E+02    -.34084E+01         .000      .000
   1.610     .46441E-01     .89420E-01     .46356E+03    -.86054E+02    -.42562E+01         .000      .000
   1.620     .87030E-03     .69288E-01     .43554E+03    -.77674E+02    -.47985E+01         .000      .000
   1.630    -.48467E-01     .40829E-01     .35170E+03    -.58640E+02    -.50232E+01         .000      .000
   1.640    -.98659E-01     .55601E-02     .21911E+03    -.31168E+02    -.49687E+01         .000      .000
   1.650    -.14691E+00    -.34079E-01     .48035E+02     .31741E+01    -.46368E+01         .000      .000
   1.660    -.19037E+00    -.74885E-01    -.15526E+03     .42916E+02    -.39979E+01         .000      .000
   1.670    -.22575E+00    -.11272E+00    -.36824E+03     .82451E+02    -.30242E+01         .000      .000
   1.680    -.24997E+00    -.14306E+00    -.54948E+03     .11343E+03    -.17891E+01         .000      .000
   1.690    -.26109E+00    -.16233E+00    -.66314E+03     .13014E+03    -.42344E+00         .000      .000
   1.700    -.25830E+00    -.16876E+00    -.69913E+03     .13226E+03     .98276E+00         .000      .000
   1.710    -.24139E+00    -.16238E+00    -.66878E+03     .12264E+03     .24018E+01         .000      .000
   1.720    -.21023E+00    -.14437E+00    -.58648E+03     .10381E+03     .38331E+01         .000      .000
   1.730    -.16511E+00    -.11668E+00    -.46205E+03     .77561E+02     .51513E+01         .000      .000
   1.740    -.10829E+00    -.81989E-01    -.30865E+03     .46966E+02     .61468E+01         .000      .000
   1.750    -.43420E-01    -.43521E-01    -.15043E+03     .17233E+02     .67713E+01         .000      .000
   1.760     .26013E-01    -.42784E-02    -.14261E+02    -.70219E+01     .70588E+01         .000      .000
   1.770     .96482E-01     .33759E-01     .93767E+02    -.26234E+02     .69636E+01         .000      .000
   1.780     .16398E+00     .69510E-01     .19068E+03    -.44239E+02     .64757E+01         .000      .000
   1.790     .22481E+00     .10188E+00     .28744E+03    -.62106E+02     .56323E+01         .000      .000
   1.800     .27543E+00     .12944E+00     .37744E+03    -.78004E+02     .44312E+01         .000      .000
   1.810     .31251E+00     .15078E+00     .45321E+03    -.90838E+02     .29535E+01         .000      .000
   1.820     .33412E+00     .16471E+00     .51052E+03    -.99844E+02     .13631E+01         .000      .000
   1.830     .33980E+00     .17030E+00     .54334E+03    -.10390E+03    -.21917E+00         .000      .000
