


 TIME HISTORY FOR STORY NO.  3



    TIME   DISPLACEMENT    STORY DRIFT    STORY SHEAR   ACCELERATION     VELOCITY          DAMAGE    DAMAGE
                                                                                          BEAM-SLAB  COL-WALL

    .000     .00000E+00     .00000E+00     .00000E+00     .00000E+00     .00000E+00         .000      .000
    .010    -.25016E-05     .50553E-07     .18993E-01    -.41694E-02    -.39346E-04         .000      .000
    .020    -.71581E-06    -.74123E-06    -.14406E-01     .95337E-02    -.85687E-04         .000      .000
    .030    -.40563E-05    -.77667E-06    -.51621E-02    -.56202E-02    -.99486E-04         .000      .000
    .040    -.31466E-05    -.11904E-05     .24703E-02     .45717E-02    -.22247E-03         .000      .000
    .050    -.85662E-05    -.17236E-05     .40020E-02    -.40116E-02    -.38770E-03         .000      .000
    .060    -.11481E-04    -.30090E-05     .64052E-02     .74764E-02    -.70411E-03         .000      .000
    .070    -.22507E-04    -.48764E-05     .14676E-01     .26032E-03    -.99963E-03         .000      .000
    .080    -.31734E-04    -.85150E-05     .24081E-03     .16584E-01    -.13511E-02         .000      .000
    .090    -.49298E-04    -.13509E-04    -.28623E-01     .12265E-01    -.16572E-02         .000      .000
    .100    -.65215E-04    -.20407E-04    -.71855E-01     .28454E-01    -.20410E-02         .000      .000
    .110    -.89907E-04    -.28569E-04    -.11552E+00     .24005E-01    -.23838E-02         .000      .000
    .120    -.11320E-03    -.38644E-04    -.16972E+00     .42520E-01    -.27969E-02         .000      .000
    .130    -.14550E-03    -.50001E-04    -.21957E+00     .40130E-01    -.31297E-02         .000      .000
    .140    -.17576E-03    -.63374E-04    -.27679E+00     .60169E-01    -.34293E-02         .000      .000
    .150    -.21083E-03    -.78253E-04    -.34726E+00     .61144E-01    -.27760E-02         .000      .000
    .160    -.23002E-03    -.94643E-04    -.51356E+00     .90109E-01    -.17288E-02         .000      .000
    .170    -.25013E-03    -.10758E-03    -.59793E+00     .52371E-01    -.21366E-02         .000      .000
    .180    -.27937E-03    -.11659E-03    -.37792E+00     .88364E-02    -.44748E-02         .000      .000
    .190    -.34248E-03    -.12962E-03    -.81745E-01     .21891E-02    -.76719E-02         .000      .000
    .200    -.43225E-03    -.15640E-03    -.24690E-01     .78315E-01    -.10696E-01         .000      .000
    .210    -.55158E-03    -.19896E-03    -.22153E+00     .13646E+00    -.12317E-01         .000      .000
    .220    -.67308E-03    -.25634E-03    -.66132E+00     .19653E+00    -.12266E-01         .000      .000
    .230    -.79445E-03    -.32198E-03    -.12666E+01     .20267E+00    -.11509E-01         .000      .000
    .240    -.90401E-03    -.38719E-03    -.17864E+01     .19738E+00    -.10943E-01         .000      .000
    .250    -.10136E-02    -.44539E-03    -.20622E+01     .17780E+00    -.10460E-01         .000      .000
    .260    -.11090E-02    -.49613E-03    -.21410E+01     .20437E+00    -.86791E-02         .000      .000
    .270    -.11738E-02    -.53998E-03    -.22146E+01     .23303E+00    -.29360E-02         .000      .000
    .280    -.11570E-02    -.57386E-03    -.24772E+01     .24926E+00     .59947E-02         .000      .000
    .290    -.10541E-02    -.58319E-03    -.25619E+01     .99092E-01     .14834E-01         .000      .000
    .300    -.87092E-03    -.55775E-03    -.20505E+01    -.13447E+00     .20565E-01         .000      .000
    .310    -.66390E-03    -.49947E-03    -.97288E+00    -.37509E+00     .19970E-01         .000      .000
    .320    -.49358E-03    -.42187E-03     .62357E+00    -.53708E+00     .12804E-01         .000      .000
    .330    -.41326E-03    -.35146E-03     .22749E+01    -.57139E+00     .40207E-02         .000      .000
    .340    -.39622E-03    -.31878E-03     .29520E+01    -.41072E+00     .31422E-03         .000      .000
    .350    -.36259E-03    -.32933E-03     .20269E+01    -.20874E+00     .98373E-02         .000      .000
    .360    -.15105E-03    -.35104E-03    -.48674E+00    -.65468E-01     .33827E-01         .000      .000
    .370     .30785E-03    -.30802E-03    -.30628E+01    -.30420E+00     .55854E-01         .000      .000
    .380     .87822E-03    -.12463E-03    -.24851E+01    -.10326E+01     .51651E-01         .000      .000
    .390     .12278E-02     .18249E-03     .27273E+01    -.17412E+01     .13858E-01         .000      .000
    .400     .11062E-02     .47003E-03     .94771E+01    -.15421E+01    -.38433E-01         .000      .000
    .410     .51391E-03     .56676E-03     .12575E+02    -.35536E+00    -.74496E-01         .000      .000
    .420    -.29875E-03     .40102E-03     .93744E+01     .10084E+01    -.85484E-01         .000      .000
    .430    -.11481E-02     .41709E-04     .22426E+01     .15026E+01    -.82374E-01         .000      .000
    .440    -.19502E-02    -.39653E-03    -.54573E+01     .14005E+01    -.80143E-01         .000      .000
    .450    -.27978E-02    -.81596E-03    -.11687E+02     .13392E+01    -.91822E-01         .000      .000
    .460    -.38231E-02    -.11586E-02    -.14345E+02     .16519E+01    -.11437E+00         .000      .000
    .470    -.50592E-02    -.14492E-02    -.13633E+02     .24107E+01    -.12916E+00         .000      .000
    .480    -.63313E-02    -.17752E-02    -.12686E+02     .34212E+01    -.12162E+00         .000      .000
    .490    -.74040E-02    -.21930E-02    -.13833E+02     .40022E+01    -.88049E-01         .000      .000
    .500    -.80047E-02    -.26859E-02    -.17467E+02     .39176E+01    -.28188E-01         .000      .000
    .510    -.79253E-02    -.31584E-02    -.22893E+02     .32357E+01     .44360E-01         .000      .000
    .520    -.71682E-02    -.34418E-02    -.26182E+02     .18282E+01     .10168E+00         .000      .000
    .530    -.60109E-02    -.34021E-02    -.22253E+02    -.12674E+00     .12350E+00         .000      .000
    .540    -.48246E-02    -.30737E-02    -.10839E+02    -.17522E+01     .10777E+00         .000      .000
    .550    -.39073E-02    -.26434E-02     .34280E+01    -.25237E+01     .76599E-01         .000      .000
    .560    -.32214E-02    -.23350E-02     .13927E+02    -.24186E+01     .66680E-01         .000      .000
    .570    -.24551E-02    -.22573E-02     .15749E+02    -.21702E+01     .91887E-01         .000      .000
    .580    -.13553E-02    -.23085E-02     .10768E+02    -.28669E+01     .12529E+00         .000      .000
    .590    -.50785E-04    -.22695E-02     .62279E+01    -.46691E+01     .12855E+00         .000      .000
    .600     .99533E-03    -.20063E-02     .72056E+01    -.62818E+01     .66306E-01         .000      .000
    .610     .10130E-02    -.15616E-02     .15517E+02    -.67918E+01    -.74339E-01         .000      .000
    .620    -.65056E-03    -.12032E-02     .28340E+02    -.54900E+01    -.26242E+00         .000      .000
    .630    -.42233E-02    -.13602E-02     .36043E+02    -.21790E+01    -.44703E+00         .000      .000
    .640    -.94121E-02    -.23836E-02     .29254E+02     .22728E+01    -.57837E+00         .000      .000
    .650    -.15454E-01    -.43446E-02     .43959E+01     .67633E+01    -.60919E+00         .000      .000
    .660    -.21220E-01    -.69614E-02    -.36083E+02     .10612E+02    -.52768E+00         .000      .000
    .670    -.25545E-01    -.96147E-02    -.80920E+02     .12844E+02    -.30761E+00         .000      .000
    .680    -.26917E-01    -.11574E-01    -.11978E+03     .13893E+02     .48862E-01         .000      .000
    .690    -.24542E-01    -.12072E-01    -.13913E+03     .11768E+02     .41182E+00         .000      .000
    .700    -.19147E-01    -.10596E-01    -.11749E+03     .48625E+01     .63548E+00         .000      .000
    .710    -.12385E-01    -.75129E-02    -.55961E+02    -.27725E+01     .69589E+00         .000      .000
    .720    -.55599E-02    -.39552E-02     .13863E+02    -.63702E+01     .65793E+00         .000      .000
    .730     .58804E-03    -.95006E-03     .64815E+02    -.74239E+01     .56279E+00         .000      .000
    .740     .55593E-02     .10214E-02     .92688E+02    -.96216E+01     .42604E+00         .000      .000
    .750     .90730E-02     .18185E-02     .97569E+02    -.12382E+02     .27949E+00         .000      .000
    .760     .11376E-01     .15956E-02     .76904E+02    -.12947E+02     .20175E+00         .000      .000
    .770     .13485E-01     .97221E-03     .36542E+02    -.10972E+02     .23617E+00         .000      .000
    .780     .16207E-01     .96956E-03     .48478E+00    -.10177E+02     .30126E+00         .000      .000
    .790     .19163E-01     .23756E-02    -.20908E+01    -.12688E+02     .26278E+00         .000      .000
    .800     .20960E-01     .50151E-02     .32589E+02    -.14865E+02     .75696E-01         .000      .000
    .810     .20481E-01     .78060E-02     .76758E+02    -.11758E+02    -.16913E+00         .000      .000
    .820     .17797E-01     .95838E-02     .97284E+02    -.37182E+01    -.34965E+00         .000      .000
    .830     .13864E-01     .98388E-02     .82208E+02     .40903E+01    -.41949E+00         .000      .000
    .840     .95406E-02     .87864E-02     .40743E+02     .80313E+01    -.44970E+00         .000      .000
    .850     .46908E-02     .70239E-02    -.73692E+01     .87845E+01    -.53248E+00         .000      .000
    .860    -.13353E-02     .50685E-02    -.46462E+02     .10582E+02    -.68159E+00         .000      .000
    .870    -.89811E-02     .31380E-02    -.71167E+02     .15793E+02    -.84275E+00         .000      .000
    .880    -.17944E-01     .11619E-02    -.82193E+02     .22923E+02    -.93086E+00         .000      .000
    .890    -.27085E-01    -.11579E-02    -.88384E+02     .29406E+02    -.86580E+00         .000      .000
    .900    -.34559E-01    -.40903E-02    -.10445E+03     .33609E+02    -.59126E+00         .000      .000
    .910    -.38071E-01    -.74487E-02    -.13862E+03     .34376E+02    -.65734E-01         .000      .000
    .920    -.35096E-01    -.10341E-01    -.18402E+03     .30648E+02     .69234E+00         .000      .000
    .930    -.24046E-01    -.11262E-01    -.21382E+03     .20105E+02     .15030E+01         .000      .000
    .940    -.60755E-02    -.87372E-02    -.18490E+03     .10162E+01     .20023E+01         .000      .000
    .950     .14011E-01    -.24834E-02    -.64879E+02    -.22985E+02     .19084E+01         .000      .000
    .960     .30384E-01     .56443E-02     .12012E+03    -.39992E+02     .13071E+01         .000      .000
    .970     .39956E-01     .12378E-01     .28410E+03    -.41090E+02     .64759E+00         .000      .000
    .980     .44571E-01     .15197E-01     .34279E+03    -.30366E+02     .35406E+00         .000      .000
    .990     .48468E-01     .14128E-01     .28311E+03    -.23311E+02     .48401E+00         .000      .000
   1.000     .54593E-01     .11506E-01     .16512E+03    -.29110E+02     .71567E+00         .000      .000
   1.010     .61575E-01     .10233E-01     .71840E+02    -.43308E+02     .58935E+00         .000      .000
   1.020     .64592E-01     .11903E-01     .62474E+02    -.52650E+02    -.67450E-01         .000      .000
   1.030     .59255E-01     .15715E-01     .12963E+03    -.45064E+02    -.10128E+01         .000      .000
   1.040     .44655E-01     .19076E-01     .20885E+03    -.21040E+02    -.18653E+01         .000      .000
   1.050     .22911E-01     .19309E-01     .23457E+03     .67452E+01    -.24348E+01         .000      .000
   1.060    -.29925E-02     .14898E-01     .17559E+03     .27538E+02    -.26919E+01         .000      .000
   1.070    -.29779E-01     .58558E-02     .24769E+02     .42854E+02    -.26028E+01         .000      .000
   1.080    -.53956E-01    -.59839E-02    -.19526E+03     .56787E+02    -.21860E+01         .000      .000
   1.090    -.72822E-01    -.17192E-01    -.40719E+03     .65897E+02    -.15680E+01         .000      .000
   1.100    -.85207E-01    -.24514E-01    -.51984E+03     .66854E+02    -.91757E+00         .000      .000
   1.110    -.91336E-01    -.26822E-01    -.49975E+03     .62654E+02    -.31419E+00         .000      .000
   1.120    -.91422E-01    -.25403E-01    -.38787E+03     .58388E+02     .31097E+00         .000      .000
   1.130    -.84797E-01    -.22561E-01    -.25670E+03     .53349E+02     .10303E+01         .000      .000
   1.140    -.70832E-01    -.19937E-01    -.15273E+03     .40642E+02     .17426E+01         .000      .000
   1.150    -.50713E-01    -.17918E-01    -.76958E+02     .16303E+02     .22250E+01         .000      .000
   1.160    -.27531E-01    -.16186E-01    -.12467E+02    -.13217E+02     .23516E+01         .000      .000
   1.170    -.47361E-02    -.14321E-01     .49041E+02    -.37340E+02     .21651E+01         .000      .000
   1.180     .15198E-01    -.11928E-01     .11432E+03    -.52488E+02     .18068E+01         .000      .000
   1.190     .31291E-01    -.88509E-02     .18900E+03    -.61499E+02     .14146E+01         .000      .000
   1.200     .43754E-01    -.54416E-02     .26272E+03    -.67268E+02     .11009E+01         .000      .000
   1.210     .53769E-01    -.23317E-02     .30784E+03    -.69833E+02     .92533E+00         .000      .000
   1.220     .62580E-01     .30978E-03     .30764E+03    -.70329E+02     .84488E+00         .000      .000
   1.230     .70744E-01     .30931E-02     .27717E+03    -.70579E+02     .78731E+00         .000      .000
   1.240     .78049E-01     .68763E-02     .24168E+03    -.69321E+02     .64733E+00         .000      .000
   1.250     .82929E-01     .12213E-01     .22449E+03    -.65420E+02     .27954E+00         .000      .000
   1.260     .82696E-01     .18831E-01     .23994E+03    -.57236E+02    -.37007E+00         .000      .000
   1.270     .75207E-01     .25266E-01     .26851E+03    -.40631E+02    -.11141E+01         .000      .000
   1.280     .61211E-01     .29463E-01     .25528E+03    -.13228E+02    -.16198E+01         .000      .000
   1.290     .44285E-01     .30340E-01     .16056E+03     .18013E+02    -.16881E+01         .000      .000
   1.300     .28745E-01     .28693E-01     .28055E+01     .41766E+02    -.13712E+01         .000      .000
   1.310     .17247E-01     .26539E-01    -.16175E+03     .53701E+02    -.93835E+00         .000      .000
   1.320     .91820E-02     .25844E-01    -.27310E+03     .57342E+02    -.74200E+00         .000      .000
   1.330     .15545E-02     .27327E-01    -.29263E+03     .60156E+02    -.79776E+00         .000      .000
   1.340    -.64392E-02     .29778E-01    -.25148E+03     .71986E+02    -.75149E+00         .000      .000
   1.350    -.12377E-01     .31385E-01    -.21765E+03     .88290E+02    -.38125E+00         .000      .000
   1.360    -.13286E-01     .31504E-01    -.20719E+03     .92278E+02     .21708E+00         .000      .000
   1.370    -.80980E-02     .30437E-01    -.20067E+03     .78662E+02     .79828E+00         .000      .000
   1.380     .20443E-02     .28651E-01    -.19080E+03     .57224E+02     .11936E+01         .000      .000
   1.390     .15127E-01     .26812E-01    -.17225E+03     .37766E+02     .13971E+01         .000      .000
   1.400     .29739E-01     .25762E-01    -.12702E+03     .21729E+02     .15259E+01         .000      .000
   1.410     .45724E-01     .25981E-01    -.45534E+02     .61519E+01     .16773E+01         .000      .000
   1.420     .63135E-01     .27324E-01     .61661E+02    -.12214E+02     .17830E+01         .000      .000
   1.430     .80807E-01     .29233E-01     .17972E+03    -.34085E+02     .17164E+01         .000      .000
   1.440     .96806E-01     .30872E-01     .28728E+03    -.54332E+02     .14553E+01         .000      .000
   1.450     .10948E+00     .31507E-01     .35843E+03    -.67841E+02     .10661E+01         .000      .000
   1.460     .11799E+00     .31039E-01     .38675E+03    -.75042E+02     .63610E+00         .000      .000
   1.470     .12225E+00     .29934E-01     .38502E+03    -.78299E+02     .21747E+00         .000      .000
   1.480     .12228E+00     .28771E-01     .36791E+03    -.78483E+02    -.21907E+00         .000      .000
   1.490     .11751E+00     .27914E-01     .34815E+03    -.75339E+02    -.76044E+00         .000      .000
   1.500     .10672E+00     .27245E-01     .33276E+03    -.67169E+02    -.14081E+01         .000      .000
   1.510     .89515E-01     .26010E-01     .30762E+03    -.50721E+02    -.20058E+01         .000      .000
   1.520     .67295E-01     .23348E-01     .24535E+03    -.26622E+02    -.23973E+01         .000      .000
   1.530     .42331E-01     .19102E-01     .14181E+03    -.19273E+01    -.25632E+01         .000      .000
   1.540     .16410E-01     .13815E-01     .20298E+02     .17855E+02    -.26164E+01         .000      .000
   1.550    -.10054E-01     .81149E-02    -.93022E+02     .33464E+02    -.26852E+01         .000      .000
   1.560    -.37355E-01     .22454E-02    -.18517E+03     .49408E+02    -.27705E+01         .000      .000
   1.570    -.65031E-01    -.39714E-02    -.25975E+03     .68259E+02    -.27260E+01         .000      .000
   1.580    -.90853E-01    -.10796E-01    -.32891E+03     .87321E+02    -.23770E+01         .000      .000
   1.590    -.11150E+00    -.18108E-01    -.39853E+03     .99855E+02    -.17094E+01         .000      .000
   1.600    -.12444E+00    -.25227E-01    -.45520E+03     .10002E+03    -.86319E+00         .000      .000
   1.610    -.12836E+00    -.31300E-01    -.48152E+03     .89553E+02     .10595E+00         .000      .000
   1.620    -.12185E+00    -.35608E-01    -.48064E+03     .75069E+02     .12166E+01         .000      .000
   1.630    -.10398E+00    -.37137E-01    -.44752E+03     .55208E+02     .23406E+01         .000      .000
   1.640    -.75732E-01    -.34729E-01    -.34737E+03     .24392E+02     .32573E+01         .000      .000
   1.650    -.40115E-01    -.28317E-01    -.16906E+03    -.13363E+02     .37916E+01         .000      .000
   1.660    -.13773E-02    -.19244E-01     .51420E+02    -.49133E+02     .38859E+01         .000      .000
   1.670     .36291E-01    -.94036E-02     .26588E+03    -.77923E+02     .35876E+01         .000      .000
   1.680     .69206E-01    -.42207E-03     .44094E+03    -.10017E+03     .29381E+01         .000      .000
   1.690     .94029E-01     .65937E-02     .56234E+03    -.11693E+03     .19823E+01         .000      .000
   1.700     .10825E+00     .10916E-01     .61939E+03    -.12479E+03     .84713E+00         .000      .000
   1.710     .11109E+00     .12286E-01     .60107E+03    -.11966E+03    -.25048E+00         .000      .000
   1.720     .10415E+00     .11228E-01     .51095E+03    -.10247E+03    -.10771E+01         .000      .000
   1.730     .90640E-01     .90450E-02     .37342E+03    -.79072E+02    -.15804E+01         .000      .000
   1.740     .73204E-01     .73611E-02     .23264E+03    -.56598E+02    -.18855E+01         .000      .000
   1.750     .53436E-01     .71399E-02     .12162E+03    -.34568E+02    -.20369E+01         .000      .000
   1.760     .33055E-01     .82430E-02     .30438E+02    -.76763E+01    -.20108E+01         .000      .000
   1.770     .13616E-01     .10245E-01    -.53989E+02     .20894E+02    -.18689E+01         .000      .000
   1.780    -.41429E-02     .12841E-01    -.11950E+03     .44068E+02    -.16744E+01         .000      .000
   1.790    -.19775E-01     .15346E-01    -.16902E+03     .62579E+02    -.14496E+01         .000      .000
   1.800    -.33186E-01     .16955E-01    -.22135E+03     .78478E+02    -.12401E+01         .000      .000
   1.810    -.44547E-01     .17352E-01    -.27510E+03     .90600E+02    -.10222E+01         .000      .000
   1.820    -.53293E-01     .16554E-01    -.32413E+03     .99389E+02    -.70302E+00         .000      .000
   1.830    -.58127E-01     .14840E-01    -.36755E+03     .10393E+03    -.24066E+00         .000      .000
