


 TIME HISTORY FOR STORY NO.  6



    TIME   DISPLACEMENT    STORY DRIFT    STORY SHEAR   ACCELERATION     VELOCITY          DAMAGE    DAMAGE
                                                                                          BEAM-SLAB  COL-WALL

    .000     .00000E+00     .00000E+00     .00000E+00     .00000E+00     .00000E+00         .000      .000
    .010    -.14406E-05    -.46454E-09    -.25240E-05     .12164E-03    -.27473E-03         .000      .000
    .020    -.55741E-05    -.80104E-08    -.12307E-02     .67028E-03    -.58096E-03         .000      .000
    .030    -.13091E-04     .76882E-07    -.68052E-02     .20238E-02    -.89699E-03         .000      .000
    .040    -.23528E-04     .67576E-06    -.74332E-02     .14785E-02    -.12186E-02         .000      .000
    .050    -.37456E-04     .20851E-05     .14548E-01    -.41005E-02    -.15385E-02         .000      .000
    .060    -.54211E-04     .37323E-05     .59409E-01    -.13322E-01    -.18307E-02         .000      .000
    .070    -.74124E-04     .43128E-05     .10766E+00    -.22063E-01    -.21382E-02         .000      .000
    .080    -.97181E-04     .25459E-05     .14375E+00    -.27825E-01    -.25071E-02         .000      .000
    .090    -.12462E-03    -.24730E-05     .15768E+00    -.28833E-01    -.29820E-02         .000      .000
    .100    -.15759E-03    -.11066E-04     .14209E+00    -.23850E-01    -.36858E-02         .000      .000
    .110    -.19887E-03    -.22719E-04     .97922E-01    -.13811E-01    -.45499E-02         .000      .000
    .120    -.24810E-03    -.36076E-04     .39625E-01    -.22473E-02    -.52698E-02         .000      .000
    .130    -.30315E-03    -.49343E-04    -.63474E-02     .49336E-02    -.56568E-02         .000      .000
    .140    -.36067E-03    -.61187E-04    -.47419E-02     .13393E-02    -.58759E-02         .000      .000
    .150    -.42025E-03    -.72114E-04     .52749E-01    -.11982E-01    -.59695E-02         .000      .000
    .160    -.47934E-03    -.84679E-04     .12179E+00    -.24023E-01    -.58419E-02         .000      .000
    .170    -.53691E-03    -.10156E-03     .14266E+00    -.24558E-01    -.56597E-02         .000      .000
    .180    -.59226E-03    -.12362E-03     .98070E-01    -.12778E-01    -.53967E-02         .000      .000
    .190    -.64396E-03    -.14988E-03    -.50578E-02     .95831E-02    -.48699E-02         .000      .000
    .200    -.68722E-03    -.17792E-03    -.15298E+00     .38832E-01    -.36161E-02         .000      .000
    .210    -.71292E-03    -.20408E-03    -.30580E+00     .65589E-01    -.13574E-02         .000      .000
    .220    -.71255E-03    -.22489E-03    -.40842E+00     .80009E-01     .14442E-02         .000      .000
    .230    -.68499E-03    -.23923E-03    -.44626E+00     .83597E-01     .39635E-02         .000      .000
    .240    -.63763E-03    -.24852E-03    -.48470E+00     .93235E-01     .51881E-02         .000      .000
    .250    -.58366E-03    -.25358E-03    -.61464E+00     .12426E+00     .56851E-02         .000      .000
    .260    -.52409E-03    -.25074E-03    -.84187E+00     .17035E+00     .61270E-02         .000      .000
    .270    -.46303E-03    -.23159E-03    -.10252E+01     .19693E+00     .59807E-02         .000      .000
    .280    -.40571E-03    -.18892E-03    -.96675E+00     .16970E+00     .54571E-02         .000      .000
    .290    -.35561E-03    -.12380E-03    -.63243E+00     .93852E-01     .44255E-02         .000      .000
    .300    -.31854E-03    -.44797E-04    -.12729E+00    -.82077E-02     .30009E-02         .000      .000
    .310    -.29505E-03     .36343E-04     .45577E+00    -.12061E+00     .17461E-02         .000      .000
    .320    -.28570E-03     .10646E-03     .10259E+01    -.22463E+00    -.12543E-03         .000      .000
    .330    -.30476E-03     .15259E-03     .14706E+01    -.29704E+00    -.41479E-02         .000      .000
    .340    -.37475E-03     .16462E-03     .16540E+01    -.31104E+00    -.99880E-02         .000      .000
    .350    -.50589E-03     .14006E-03     .14727E+01    -.25398E+00    -.16240E-01         .000      .000
    .360    -.70217E-03     .88366E-04     .10445E+01    -.16443E+00    -.23300E-01         .000      .000
    .370    -.97006E-03     .25569E-04     .70841E+00    -.11151E+00    -.29831E-01         .000      .000
    .380    -.12874E-02    -.38862E-04     .66919E+00    -.11951E+00    -.32933E-01         .000      .000
    .390    -.16154E-02    -.10646E-03     .88902E+00    -.17487E+00    -.32042E-01         .000      .000
    .400    -.19182E-02    -.18679E-03     .13094E+01    -.26525E+00    -.28139E-01         .000      .000
    .410    -.21742E-02    -.29835E-03     .17138E+01    -.33186E+00    -.23009E-01         .000      .000
    .420    -.23814E-02    -.46236E-03     .15963E+01    -.26800E+00    -.18756E-01         .000      .000
    .430    -.25562E-02    -.68374E-03     .53926E+00    -.12574E-01    -.16555E-01         .000      .000
    .440    -.27221E-02    -.93686E-03    -.13910E+01     .39186E+00    -.17276E-01         .000      .000
    .450    -.29063E-02    -.11690E-02    -.36425E+01     .81807E+00    -.19416E-01         .000      .000
    .460    -.31104E-02    -.13182E-02    -.54273E+01     .11109E+01    -.21573E-01         .000      .000
    .470    -.33474E-02    -.13362E-02    -.59986E+01     .11377E+01    -.26672E-01         .000      .000
    .480    -.36531E-02    -.12097E-02    -.49353E+01     .84821E+00    -.34550E-01         .000      .000
    .490    -.40374E-02    -.97159E-03    -.25074E+01     .33251E+00    -.42072E-01         .000      .000
    .500    -.44926E-02    -.68624E-03     .57038E+00    -.26889E+00    -.48986E-01         .000      .000
    .510    -.50223E-02    -.42738E-03     .37340E+01    -.85909E+00    -.57428E-01         .000      .000
    .520    -.56346E-02    -.26983E-03     .64009E+01    -.13148E+01    -.63842E-01         .000      .000
    .530    -.62634E-02    -.27659E-03     .77618E+01    -.14854E+01    -.59499E-01         .000      .000
    .540    -.67737E-02    -.47238E-03     .74731E+01    -.13570E+01    -.39942E-01         .000      .000
    .550    -.70116E-02    -.84058E-03     .60632E+01    -.10605E+01    -.52656E-02         .000      .000
    .560    -.68438E-02    -.13550E-02     .39211E+01    -.62547E+00     .40001E-01         .000      .000
    .570    -.61921E-02    -.19928E-02     .53292E+00     .88971E-01     .91153E-01         .000      .000
    .580    -.50170E-02    -.27053E-02    -.47879E+01     .11927E+01     .14342E+00         .000      .000
    .590    -.33307E-02    -.33854E-02    -.11878E+02     .25942E+01     .19354E+00         .000      .000
    .600    -.11368E-02    -.38703E-02    -.19542E+02     .40184E+01     .24639E+00         .000      .000
    .610     .16132E-02    -.39757E-02    -.26035E+02     .51135E+01     .30397E+00         .000      .000
    .620     .49459E-02    -.35429E-02    -.29424E+02     .55153E+01     .36243E+00         .000      .000
    .630     .88341E-02    -.24952E-02    -.28356E+02     .50377E+01     .41259E+00         .000      .000
    .640     .13134E-01    -.87470E-03    -.23121E+02     .38394E+01     .44383E+00         .000      .000
    .650     .17626E-01     .11807E-02    -.15389E+02     .22863E+01     .44977E+00         .000      .000
    .660     .22021E-01     .35008E-02    -.69379E+01     .68932E+00     .42331E+00         .000      .000
    .670     .25963E-01     .59346E-02     .13724E+01    -.84477E+00     .35823E+00         .000      .000
    .680     .29068E-01     .83610E-02     .95270E+01    -.23457E+01     .25775E+00         .000      .000
    .690     .31045E-01     .10677E-01     .17875E+02    -.39034E+01     .13533E+00         .000      .000
    .700     .31737E-01     .12783E-01     .27185E+02    -.56967E+01     .16063E-02         .000      .000
    .710     .31060E-01     .14543E-01     .38366E+02    -.78747E+01    -.13728E+00         .000      .000
    .720     .29012E-01     .15738E-01     .50895E+02    -.10217E+02    -.26980E+00         .000      .000
    .730     .25729E-01     .16068E-01     .61906E+02    -.12079E+02    -.38268E+00         .000      .000
    .740     .21419E-01     .15251E-01     .67763E+02    -.12789E+02    -.47724E+00         .000      .000
    .750     .16219E-01     .13122E-01     .65880E+02    -.11922E+02    -.56122E+00         .000      .000
    .760     .10257E-01     .96868E-02     .54669E+02    -.92221E+01    -.62637E+00         .000      .000
    .770     .38090E-02     .51739E-02     .33864E+02    -.47729E+01    -.65642E+00         .000      .000
    .780    -.27219E-02     .59948E-04     .66148E+01     .59579E+00    -.64210E+00         .000      .000
    .790    -.88677E-02    -.50305E-02    -.20771E+02     .56001E+01    -.57865E+00         .000      .000
    .800    -.14119E-01    -.95277E-02    -.42801E+02     .93466E+01    -.46276E+00         .000      .000
    .810    -.17977E-01    -.13053E-01    -.57360E+02     .11621E+02    -.30307E+00         .000      .000
    .820    -.20100E-01    -.15432E-01    -.64829E+02     .12601E+02    -.11912E+00         .000      .000
    .830    -.20329E-01    -.16649E-01    -.67048E+02     .12720E+02     .74118E-01         .000      .000
    .840    -.18631E-01    -.16779E-01    -.66894E+02     .12553E+02     .26364E+00         .000      .000
    .850    -.15105E-01    -.15880E-01    -.66378E+02     .12372E+02     .43867E+00         .000      .000
    .860    -.99530E-02    -.13939E-01    -.64955E+02     .11940E+02     .58491E+00         .000      .000
    .870    -.35520E-02    -.10907E-01    -.60300E+02     .10769E+02     .68734E+00         .000      .000
    .880     .36291E-02    -.67863E-02    -.50109E+02     .84674E+01     .74037E+00         .000      .000
    .890     .11054E-01    -.17054E-02    -.33183E+02     .48758E+01     .73293E+00         .000      .000
    .900     .18059E-01     .40550E-02    -.94695E+01     .55495E-01     .65698E+00         .000      .000
    .910     .23976E-01     .10048E-01     .19393E+02    -.55644E+01     .51627E+00         .000      .000
    .920     .28179E-01     .15701E-01     .49732E+02    -.11206E+02     .31433E+00         .000      .000
    .930     .30107E-01     .20420E-01     .77471E+02    -.16130E+02     .65909E-01         .000      .000
    .940     .29455E-01     .23681E-01     .99383E+02    -.19788E+02    -.19494E+00         .000      .000
    .950     .26314E-01     .25098E-01     .11328E+03    -.21857E+02    -.42393E+00         .000      .000
    .960     .21200E-01     .24446E-01     .11852E+03    -.22317E+02    -.58603E+00         .000      .000
    .970     .14764E-01     .21643E-01     .11532E+03    -.21192E+02    -.69702E+00         .000      .000
    .980     .72823E-02     .16696E-01     .10251E+03    -.18105E+02    -.80097E+00         .000      .000
    .990    -.12412E-02     .97484E-02     .76332E+02    -.12232E+02    -.90044E+00         .000      .000
   1.000    -.10613E-01     .12623E-02     .33906E+02    -.32841E+01    -.96613E+00         .000      .000
   1.010    -.20297E-01    -.78158E-02    -.19596E+02     .71604E+01    -.95272E+00         .000      .000
   1.020    -.29256E-01    -.16223E-01    -.70401E+02     .16188E+02    -.81696E+00         .000      .000
   1.030    -.36261E-01    -.22849E-01    -.10520E+03     .21568E+02    -.56934E+00         .000      .000
   1.040    -.40443E-01    -.27122E-01    -.11882E+03     .22879E+02    -.26171E+00         .000      .000
   1.050    -.41481E-01    -.29084E-01    -.11580E+03     .21508E+02     .51043E-01         .000      .000
   1.060    -.39512E-01    -.29153E-01    -.10686E+03     .19653E+02     .33781E+00         .000      .000
   1.070    -.34822E-01    -.27720E-01    -.10093E+03     .18702E+02     .59562E+00         .000      .000
   1.080    -.27678E-01    -.24884E-01    -.99248E+02     .18412E+02     .82934E+00         .000      .000
   1.090    -.18282E-01    -.20491E-01    -.96043E+02     .17423E+02     .10486E+01         .000      .000
   1.100    -.67445E-02    -.14385E-01    -.83903E+02     .14384E+02     .12562E+01         .000      .000
   1.110     .67244E-02    -.66657E-02    -.58419E+02     .87053E+01     .14283E+01         .000      .000
   1.120     .21593E-01     .21787E-02    -.20344E+02     .86761E+00     .15323E+01         .000      .000
   1.130     .37071E-01     .11300E-01     .23521E+02    -.75084E+01     .15475E+01         .000      .000
   1.140     .52240E-01     .19713E-01     .62616E+02    -.14353E+02     .14724E+01         .000      .000
   1.150     .66218E-01     .26629E-01     .88496E+02    -.18328E+02     .13071E+01         .000      .000
   1.160     .78075E-01     .31665E-01     .98802E+02    -.19342E+02     .10494E+01         .000      .000
   1.170     .86957E-01     .34852E-01     .96403E+02    -.18155E+02     .71685E+00         .000      .000
   1.180     .92209E-01     .36503E-01     .86726E+02    -.15912E+02     .32321E+00         .000      .000
   1.190     .93320E-01     .37064E-01     .76878E+02    -.14050E+02    -.10117E+00         .000      .000
   1.200     .90221E-01     .36901E-01     .73676E+02    -.13761E+02    -.51526E+00         .000      .000
   1.210     .83027E-01     .36108E-01     .80106E+02    -.15344E+02    -.92582E+00         .000      .000
   1.220     .71646E-01     .34433E-01     .94056E+02    -.18084E+02    -.13534E+01         .000      .000
   1.230     .55957E-01     .31359E-01     .10770E+03    -.20200E+02    -.17809E+01         .000      .000
   1.240     .36146E-01     .26389E-01     .11075E+03    -.19840E+02    -.21729E+01         .000      .000
   1.250     .12777E-01     .19393E-01     .99033E+02    -.16747E+02    -.24821E+01         .000      .000
   1.260    -.13060E-01     .10669E-01     .76983E+02    -.12124E+02    -.26612E+01         .000      .000
   1.270    -.39964E-01     .71013E-03     .51249E+02    -.71787E+01    -.26958E+01         .000      .000
   1.280    -.66554E-01    -.10032E-01     .25566E+02    -.23925E+01    -.26039E+01         .000      .000
   1.290    -.91736E-01    -.21234E-01    -.56365E+00     .25765E+01    -.24199E+01         .000      .000
   1.300    -.11472E+00    -.32626E-01    -.30874E+02     .85535E+01    -.21648E+01         .000      .000
   1.310    -.13479E+00    -.43821E-01    -.68741E+02     .16033E+02    -.18379E+01         .000      .000
   1.320    -.15121E+00    -.54157E-01    -.11287E+03     .24433E+02    -.14324E+01         .000      .000
   1.330    -.16315E+00    -.62733E-01    -.15627E+03     .32166E+02    -.93892E+00         .000      .000
   1.340    -.16975E+00    -.68643E-01    -.18979E+03     .37521E+02    -.37325E+00         .000      .000
   1.350    -.17047E+00    -.71235E-01    -.20670E+03     .39449E+02     .23295E+00         .000      .000
   1.360    -.16505E+00    -.70284E-01    -.20520E+03     .37932E+02     .85133E+00         .000      .000
   1.370    -.15356E+00    -.65990E-01    -.18854E+03     .33825E+02     .14361E+01         .000      .000
   1.380    -.13660E+00    -.58830E-01    -.16214E+03     .28216E+02     .19379E+01         .000      .000
   1.390    -.11531E+00    -.49404E-01    -.13145E+03     .22153E+02     .22883E+01         .000      .000
   1.400    -.91578E-01    -.38284E-01    -.10091E+03     .16404E+02     .24170E+01         .000      .000
   1.410    -.67648E-01    -.25889E-01    -.72009E+02     .11033E+02     .23424E+01         .000      .000
   1.420    -.45097E-01    -.12445E-01    -.41668E+02     .51020E+01     .21575E+01         .000      .000
   1.430    -.24655E-01     .19034E-02    -.66000E+00    -.34969E+01     .19247E+01         .000      .000
   1.440    -.67951E-02     .16706E-01     .61876E+02    -.16580E+02     .16338E+01         .000      .000
   1.450     .77104E-02     .30729E-01     .14446E+03    -.32806E+02     .12507E+01         .000      .000
   1.460     .17864E-01     .41985E-01     .22639E+03    -.47353E+02     .76332E+00         .000      .000
   1.470     .22795E-01     .48488E-01     .28050E+03    -.55276E+02     .22288E+00         .000      .000
   1.480     .22438E-01     .49107E-01     .29127E+03    -.54605E+02    -.28249E+00         .000      .000
   1.490     .17475E-01     .43890E-01     .26043E+03    -.46551E+02    -.68983E+00         .000      .000
   1.500     .90714E-02     .33823E-01     .20052E+03    -.33826E+02    -.96940E+00         .000      .000
   1.510    -.14699E-02     .20363E-01     .12500E+03    -.18849E+02    -.11170E+01         .000      .000
   1.520    -.12820E-01     .50925E-02     .43722E+02    -.32981E+01    -.11307E+01         .000      .000
   1.530    -.23688E-01    -.10432E-01    -.35891E+02     .11503E+02    -.10262E+01         .000      .000
   1.540    -.33038E-01    -.24787E-01    -.10759E+03     .24461E+02    -.83055E+00         .000      .000
   1.550    -.39994E-01    -.36773E-01    -.16743E+03     .34990E+02    -.54347E+00         .000      .000
   1.560    -.43653E-01    -.45438E-01    -.21380E+03     .42846E+02    -.18017E+00         .000      .000
   1.570    -.43548E-01    -.50020E-01    -.24382E+03     .47347E+02     .19751E+00         .000      .000
   1.580    -.39811E-01    -.50011E-01    -.25270E+03     .47621E+02     .54253E+00         .000      .000
   1.590    -.32891E-01    -.45313E-01    -.23864E+03     .43590E+02     .82971E+00         .000      .000
   1.600    -.23493E-01    -.36232E-01    -.20273E+03     .35482E+02     .10342E+01         .000      .000
   1.610    -.12507E-01    -.23433E-01    -.14487E+03     .23226E+02     .11485E+01         .000      .000
   1.620    -.79719E-03    -.80171E-02    -.66593E+02     .73537E+01     .11809E+01         .000      .000
   1.630     .10780E-01     .84428E-02     .24728E+02    -.10394E+02     .11149E+01         .000      .000
   1.640     .21102E-01     .24071E-01     .11711E+03    -.27554E+02     .93018E+00         .000      .000
   1.650     .29055E-01     .36971E-01     .19633E+03    -.41351E+02     .64802E+00         .000      .000
   1.660     .33841E-01     .45584E-01     .24876E+03    -.49400E+02     .30033E+00         .000      .000
   1.670     .34969E-01     .49032E-01     .26759E+03    -.50937E+02    -.75307E-01         .000      .000
   1.680     .32355E-01     .47223E-01     .25477E+03    -.46735E+02    -.44555E+00         .000      .000
   1.690     .26159E-01     .40690E-01     .21644E+03    -.38076E+02    -.78589E+00         .000      .000
   1.700     .16829E-01     .30397E-01     .15974E+03    -.26368E+02    -.10691E+01         .000      .000
   1.710     .50168E-02     .17586E-01     .92450E+02    -.13131E+02    -.12810E+01         .000      .000
   1.720    -.84883E-02     .36165E-02     .22691E+02     .96843E-01    -.14029E+01         .000      .000
   1.730    -.22697E-01    -.10200E-01    -.42599E+02     .12104E+02    -.14222E+01         .000      .000
   1.740    -.36613E-01    -.22719E-01    -.98558E+02     .22068E+02    -.13460E+01         .000      .000
   1.750    -.49277E-01    -.33025E-01    -.14177E+03     .29416E+02    -.11683E+01         .000      .000
   1.760    -.59628E-01    -.40469E-01    -.17036E+03     .33878E+02    -.88568E+00         .000      .000
   1.770    -.66726E-01    -.44671E-01    -.18338E+03     .35294E+02    -.52388E+00         .000      .000
   1.780    -.69982E-01    -.45544E-01    -.18020E+03     .33635E+02    -.12503E+00         .000      .000
   1.790    -.69250E-01    -.43319E-01    -.16295E+03     .29531E+02     .26718E+00         .000      .000
   1.800    -.64776E-01    -.38486E-01    -.13683E+03     .24077E+02     .61858E+00         .000      .000
   1.810    -.57052E-01    -.31615E-01    -.10645E+03     .18015E+02     .91808E+00         .000      .000
   1.820    -.46541E-01    -.23244E-01    -.73342E+02     .11465E+02     .11795E+01         .000      .000
   1.830    -.33611E-01    -.13901E-01    -.37049E+02     .42929E+01     .13964E+01         .000      .000
