


 TIME HISTORY FOR STORY NO.  5



    TIME   DISPLACEMENT    STORY DRIFT    STORY SHEAR   ACCELERATION     VELOCITY          DAMAGE    DAMAGE
                                                                                          BEAM-SLAB  COL-WALL

    .000     .00000E+00     .00000E+00     .00000E+00     .00000E+00     .00000E+00         .000      .000
    .010    -.14401E-05    -.75854E-10    -.29174E-03     .21923E-03    -.27449E-03         .000      .000
    .020    -.55661E-05     .56058E-07    -.17970E-02     .13931E-03    -.58057E-03         .000      .000
    .030    -.13168E-04     .39911E-06     .76506E-02    -.31745E-02    -.92229E-03         .000      .000
    .040    -.24204E-04     .98376E-06     .34885E-01    -.74839E-02    -.13197E-02         .000      .000
    .050    -.39541E-04     .12763E-05     .65756E-01    -.71927E-02    -.17095E-02         .000      .000
    .060    -.57943E-04     .71562E-06     .88494E-01    -.25352E-02    -.19656E-02         .000      .000
    .070    -.78437E-04    -.10750E-05     .10958E+00     .17203E-02    -.20977E-02         .000      .000
    .080    -.99727E-04    -.46147E-05     .12345E+00     .51745E-02    -.21789E-02         .000      .000
    .090    -.12215E-03    -.10305E-04     .12040E+00     .76388E-02    -.23006E-02         .000      .000
    .100    -.14652E-03    -.18112E-04     .10085E+00     .74991E-02    -.26570E-02         .000      .000
    .110    -.17615E-03    -.27583E-04     .75526E-01     .36391E-02    -.32714E-02         .000      .000
    .120    -.21202E-03    -.38084E-04     .56460E-01    -.34098E-02    -.39080E-02         .000      .000
    .130    -.25380E-03    -.49132E-04     .60471E-01    -.11007E-01    -.43903E-02         .000      .000
    .140    -.29948E-03    -.61085E-04     .74949E-01    -.98355E-02    -.47659E-02         .000      .000
    .150    -.34814E-03    -.74793E-04     .68155E-01     .42618E-02    -.48478E-02         .000      .000
    .160    -.39466E-03    -.90644E-04     .31737E-01     .21050E-01    -.44019E-02         .000      .000
    .170    -.43535E-03    -.10847E-03    -.12458E-01     .28626E-01    -.37097E-02         .000      .000
    .180    -.46864E-03    -.12827E-03    -.78344E-01     .30517E-01    -.29525E-02         .000      .000
    .190    -.49408E-03    -.14938E-03    -.17979E+00     .28566E-01    -.21015E-02         .000      .000
    .200    -.50930E-03    -.17008E-03    -.28922E+00     .19903E-01    -.83967E-03         .000      .000
    .210    -.50884E-03    -.18869E-03    -.38322E+00     .10008E-01     .10352E-02         .000      .000
    .220    -.48766E-03    -.20439E-03    -.48000E+00     .12618E-01     .31942E-02         .000      .000
    .230    -.44576E-03    -.21668E-03    -.62127E+00     .33527E-01     .51108E-02         .000      .000
    .240    -.38911E-03    -.22381E-03    -.80553E+00     .55213E-01     .59205E-02         .000      .000
    .250    -.33008E-03    -.22232E-03    -.95949E+00     .49964E-01     .59058E-02         .000      .000
    .260    -.27334E-03    -.20841E-03    -.98490E+00     .65444E-02     .51877E-02         .000      .000
    .270    -.23144E-03    -.18062E-03    -.83380E+00    -.46511E-01     .29540E-02         .000      .000
    .280    -.21680E-03    -.14115E-03    -.60098E+00    -.61434E-01    -.29537E-04         .000      .000
    .290    -.23182E-03    -.92662E-04    -.30945E+00    -.47074E-01    -.29601E-02         .000      .000
    .300    -.27374E-03    -.38776E-04     .10350E+00    -.30877E-01    -.52173E-02         .000      .000
    .310    -.33139E-03     .13363E-04     .57404E+00    -.10364E-01    -.60422E-02         .000      .000
    .320    -.39216E-03     .55203E-04     .98608E+00     .17442E-01    -.61416E-02         .000      .000
    .330    -.45736E-03     .79384E-04     .12375E+01     .50142E-01    -.71813E-02         .000      .000
    .340    -.53937E-03     .82475E-04     .12814E+01     .66207E-01    -.93082E-02         .000      .000
    .350    -.64595E-03     .66784E-04     .12516E+01     .24160E-01    -.12174E-01         .000      .000
    .360    -.79054E-03     .35744E-04     .13053E+01    -.60351E-01    -.17322E-01         .000      .000
    .370    -.99563E-03    -.10890E-04     .13587E+01    -.10560E+00    -.23413E-01         .000      .000
    .380    -.12485E-02    -.73376E-04     .13405E+01    -.93309E-01    -.26428E-01         .000      .000
    .390    -.15089E-02    -.15171E-03     .13788E+01    -.56058E-01    -.24875E-01         .000      .000
    .400    -.17314E-02    -.25240E-03     .13106E+01     .42683E-01    -.18925E-01         .000      .000
    .410    -.18758E-02    -.38276E-03     .77487E+00     .20704E+00    -.95205E-02         .000      .000
    .420    -.19190E-02    -.53944E-03    -.26025E+00     .33366E+00     .66681E-03         .000      .000
    .430    -.18724E-02    -.70755E-03    -.15589E+01     .32912E+00     .78655E-02         .000      .000
    .440    -.17853E-02    -.86506E-03    -.28663E+01     .19027E+00     .80185E-02         .000      .000
    .450    -.17373E-02    -.98646E-03    -.38989E+01    -.22479E-01     .64805E-03         .000      .000
    .460    -.17921E-02    -.10485E-02    -.43345E+01    -.23179E+00    -.12631E-01         .000      .000
    .470    -.20112E-02    -.10394E-02    -.39338E+01    -.34920E+00    -.32261E-01         .000      .000
    .480    -.24433E-02    -.96623E-03    -.28326E+01    -.29631E+00    -.53682E-01         .000      .000
    .490    -.30658E-02    -.84826E-03    -.11747E+01    -.14425E+00    -.69452E-01         .000      .000
    .500    -.38064E-02    -.71554E-03     .10469E+01    -.56943E-02    -.77446E-01         .000      .000
    .510    -.45949E-02    -.61361E-03     .32762E+01     .16095E+00    -.79478E-01         .000      .000
    .520    -.53648E-02    -.58757E-03     .47082E+01     .36372E+00    -.72198E-01         .000      .000
    .530    -.59868E-02    -.66105E-03     .52416E+01     .44517E+00    -.49369E-01         .000      .000
    .540    -.63013E-02    -.84274E-03     .51017E+01     .37227E+00    -.11263E-01         .000      .000
    .550    -.61710E-02    -.11407E-02     .37161E+01     .39198E+00     .39231E-01         .000      .000
    .560    -.54888E-02    -.15461E-02     .31622E+00     .63098E+00     .98068E-01         .000      .000
    .570    -.41993E-02    -.20116E-02    -.48880E+01     .88921E+00     .15991E+00         .000      .000
    .580    -.23117E-02    -.24566E-02    -.11004E+02     .91898E+00     .21538E+00         .000      .000
    .590     .54675E-04    -.27835E-02    -.17108E+02     .66060E+00     .25482E+00         .000      .000
    .600     .27335E-02    -.28887E-02    -.22358E+02     .20478E+00     .27894E+00         .000      .000
    .610     .55889E-02    -.26742E-02    -.25646E+02    -.33947E+00     .28976E+00         .000      .000
    .620     .84888E-02    -.20763E-02    -.26197E+02    -.74218E+00     .28872E+00         .000      .000
    .630     .11329E-01    -.10832E-02    -.24230E+02    -.77441E+00     .27750E+00         .000      .000
    .640     .14009E-01     .27722E-03    -.20039E+02    -.53551E+00     .25724E+00         .000      .000
    .650     .16445E-01     .19483E-02    -.13647E+02    -.33921E+00     .22820E+00         .000      .000
    .660     .18520E-01     .38459E-02    -.51329E+01    -.41946E+00     .18337E+00         .000      .000
    .670     .20029E-01     .58614E-02     .49835E+01    -.75579E+00     .11340E+00         .000      .000
    .680     .20707E-01     .78756E-02     .16084E+02    -.12395E+01     .18995E-01         .000      .000
    .690     .20368E-01     .97689E-02     .28127E+02    -.18252E+01    -.87559E-01         .000      .000
    .700     .18954E-01     .11404E-01     .41052E+02    -.23206E+01    -.19454E+00         .000      .000
    .710     .16517E-01     .12603E-01     .53393E+02    -.22917E+01    -.28953E+00         .000      .000
    .720     .13274E-01     .13175E-01     .62803E+02    -.15617E+01    -.35126E+00         .000      .000
    .730     .96610E-02     .12963E-01     .67780E+02    -.50614E+00    -.36234E+00         .000      .000
    .740     .61679E-02     .11863E-01     .67354E+02     .47847E+00    -.33141E+00         .000      .000
    .750     .30970E-02     .98362E-02     .59914E+02     .13218E+01    -.28125E+00         .000      .000
    .760     .57026E-03     .69678E-02     .44864E+02     .17821E+01    -.22305E+00         .000      .000
    .770    -.13650E-02     .34946E-02     .24764E+02     .13781E+01    -.16527E+00         .000      .000
    .780    -.27818E-02    -.26551E-03     .31119E+01     .30415E+00    -.12123E+00         .000      .000
    .790    -.38372E-02    -.39958E-02    -.18538E+02    -.51082E+00    -.91139E-01         .000      .000
    .800    -.45916E-02    -.73937E-02    -.39032E+02    -.54323E+00    -.57115E-01         .000      .000
    .810    -.49235E-02    -.10187E-01    -.56184E+02     .14233E-01    -.64479E-02         .000      .000
    .820    -.46682E-02    -.12185E-01    -.68720E+02     .90298E+00     .59840E-01         .000      .000
    .830    -.36800E-02    -.13281E-01    -.77075E+02     .18662E+01     .13999E+00         .000      .000
    .840    -.18521E-02    -.13412E-01    -.81180E+02     .23480E+01     .22482E+00         .000      .000
    .850     .77584E-03    -.12540E-01    -.80119E+02     .19787E+01     .29750E+00         .000      .000
    .860     .39863E-02    -.10678E-01    -.73641E+02     .97442E+00     .33689E+00         .000      .000
    .870     .73545E-02    -.78885E-02    -.61896E+02    -.21297E+00     .32874E+00         .000      .000
    .880     .10415E-01    -.42880E-02    -.44851E+02    -.12682E+01     .27698E+00         .000      .000
    .890     .12759E-01    -.61830E-04    -.22332E+02    -.20647E+01     .18479E+00         .000      .000
    .900     .14004E-01     .45079E-02     .45794E+01    -.23882E+01     .60511E-01         .000      .000
    .910     .13928E-01     .90580E-02     .33343E+02    -.21803E+01    -.76189E-01         .000      .000
    .920     .12477E-01     .13197E-01     .61800E+02    -.17904E+01    -.21381E+00         .000      .000
    .930     .96872E-02     .16531E-01     .87653E+02    -.14477E+01    -.34084E+00         .000      .000
    .940     .57739E-02     .18699E-01     .10806E+03    -.11930E+01    -.43396E+00         .000      .000
    .950     .12165E-02     .19422E-01     .12107E+03    -.10558E+01    -.46456E+00         .000      .000
    .960    -.32464E-02     .18510E-01     .12476E+03    -.72676E+00    -.41381E+00         .000      .000
    .970    -.68784E-02     .15873E-01     .11630E+03     .32970E+00    -.30860E+00         .000      .000
    .980    -.94134E-02     .11582E-01     .93137E+02     .21635E+01    -.20204E+00         .000      .000
    .990    -.10990E-01     .59611E-02     .56482E+02     .36084E+01    -.11720E+00         .000      .000
   1.000    -.11876E-01    -.40190E-03     .13863E+02     .29430E+01    -.68176E-01         .000      .000
   1.010    -.12481E-01    -.68252E-02    -.26317E+02     .30604E+00    -.56969E-01         .000      .000
   1.020    -.13033E-01    -.12717E-01    -.60992E+02    -.21091E+01    -.50445E-01         .000      .000
   1.030    -.13412E-01    -.17614E-01    -.89387E+02    -.25156E+01    -.20271E-01         .000      .000
   1.040    -.13321E-01    -.21194E-01    -.11105E+03    -.56710E+00     .44947E-01         .000      .000
   1.050    -.12397E-01    -.23279E-01    -.12631E+03     .26155E+01     .14451E+00         .000      .000
   1.060    -.10359E-01    -.23768E-01    -.13414E+03     .49211E+01     .26511E+00         .000      .000
   1.070    -.71018E-02    -.22624E-01    -.13278E+03     .49110E+01     .38329E+00         .000      .000
   1.080    -.27941E-02    -.19887E-01    -.12188E+03     .28341E+01     .47146E+00         .000      .000
   1.090     .22092E-02    -.15678E-01    -.10255E+03     .67967E-01     .52474E+00         .000      .000
   1.100     .76404E-02    -.10202E-01    -.75864E+02    -.20885E+01     .56030E+00         .000      .000
   1.110     .13390E-01    -.37681E-02    -.43026E+02    -.28756E+01     .58857E+00         .000      .000
   1.120     .19414E-01     .31762E-02    -.74086E+01    -.20299E+01     .61760E+00         .000      .000
   1.130     .25771E-01     .10120E-01     .26561E+02    -.25103E+00     .65493E+00         .000      .000
   1.140     .32527E-01     .16593E-01     .56379E+02     .10008E+01     .69586E+00         .000      .000
   1.150     .39589E-01     .22217E-01     .80642E+02     .81869E+00     .70694E+00         .000      .000
   1.160     .46410E-01     .26728E-01     .97798E+02    -.60637E+00     .64159E+00         .000      .000
   1.170     .52106E-01     .30016E-01     .10748E+03    -.26866E+01     .48186E+00         .000      .000
   1.180     .55706E-01     .32130E-01     .11265E+03    -.50722E+01     .22014E+00         .000      .000
   1.190     .56256E-01     .33162E-01     .11695E+03    -.70623E+01    -.11678E+00         .000      .000
   1.200     .53319E-01     .33147E-01     .12144E+03    -.77548E+01    -.46879E+00         .000      .000
   1.210     .46919E-01     .32035E-01     .12582E+03    -.67741E+01    -.80936E+00         .000      .000
   1.220     .37214E-01     .29681E-01     .12707E+03    -.40985E+01    -.11257E+01         .000      .000
   1.230     .24598E-01     .25954E-01     .12189E+03    -.88543E+00    -.13848E+01         .000      .000
   1.240     .97570E-02     .20852E-01     .11176E+03     .82670E+00    -.15726E+01         .000      .000
   1.250    -.66159E-02     .14442E-01     .98445E+02     .67839E+00    -.16885E+01         .000      .000
   1.260    -.23729E-01     .68144E-02     .79629E+02     .17404E+00    -.17187E+01         .000      .000
   1.270    -.40674E-01    -.18581E-02     .53411E+02     .53403E+00    -.16543E+01         .000      .000
   1.280    -.56522E-01    -.11305E-01     .19813E+02     .21332E+01    -.15023E+01         .000      .000
   1.290    -.70502E-01    -.21178E-01    -.20688E+02     .45964E+01    -.12854E+01         .000      .000
   1.300    -.82089E-01    -.31032E-01    -.66201E+02     .68272E+01    -.10269E+01         .000      .000
   1.310    -.90971E-01    -.40320E-01    -.11265E+03     .76638E+01    -.74789E+00         .000      .000
   1.320    -.97054E-01    -.48451E-01    -.15525E+03     .68544E+01    -.47076E+00         .000      .000
   1.330    -.10041E+00    -.54871E-01    -.19048E+03     .52610E+01    -.20085E+00         .000      .000
   1.340    -.10110E+00    -.59116E-01    -.21591E+03     .39766E+01     .59419E-01         .000      .000
   1.350    -.99240E-01    -.60868E-01    -.22963E+03     .36515E+01     .31496E+00         .000      .000
   1.360    -.94763E-01    -.59988E-01    -.23107E+03     .42538E+01     .58285E+00         .000      .000
   1.370    -.87571E-01    -.56517E-01    -.22007E+03     .50765E+01     .85390E+00         .000      .000
   1.380    -.77774E-01    -.50671E-01    -.19814E+03     .55792E+01     .10984E+01         .000      .000
   1.390    -.65905E-01    -.42778E-01    -.16806E+03     .53445E+01     .12525E+01         .000      .000
   1.400    -.53294E-01    -.33194E-01    -.13082E+03     .38300E+01     .12358E+01         .000      .000
   1.410    -.41759E-01    -.22268E-01    -.85182E+02     .65162E+00     .10481E+01         .000      .000
   1.420    -.32652E-01    -.10382E-01    -.27270E+02    -.41744E+01     .76475E+00         .000      .000
   1.430    -.26558E-01     .18683E-02     .44378E+02    -.87694E+01     .45429E+00         .000      .000
   1.440    -.23502E-01     .13522E-01     .12018E+03    -.95011E+01     .16419E+00         .000      .000
   1.450    -.23018E-01     .23441E-01     .18505E+03    -.51523E+01    -.49703E-01         .000      .000
   1.460    -.24121E-01     .30656E-01     .23108E+03     .96050E+00    -.15288E+00         .000      .000
   1.470    -.25693E-01     .34498E-01     .25733E+03     .46250E+01    -.14227E+00         .000      .000
   1.480    -.26669E-01     .34587E-01     .26184E+03     .45690E+01    -.42463E-01         .000      .000
   1.490    -.26415E-01     .30895E-01     .24148E+03     .23207E+01     .96275E-01         .000      .000
   1.500    -.24752E-01     .23802E-01     .19518E+03     .19205E+00     .23310E+00         .000      .000
   1.510    -.21833E-01     .14107E-01     .12747E+03    -.78110E+00     .34611E+00         .000      .000
   1.520    -.17912E-01     .28988E-02     .47909E+02    -.85729E+00     .43424E+00         .000      .000
   1.530    -.13256E-01    -.86416E-02    -.33666E+02    -.40156E+00     .48996E+00         .000      .000
   1.540    -.82513E-02    -.19403E-01    -.11036E+03     .55976E+00     .50429E+00         .000      .000
   1.550    -.32204E-02    -.28386E-01    -.17684E+03     .16308E+01     .50326E+00         .000      .000
   1.560     .17850E-02    -.34727E-01    -.22617E+03     .18205E+01     .49327E+00         .000      .000
   1.570     .64716E-02    -.37813E-01    -.25280E+03     .10815E+01     .43163E+00         .000      .000
   1.580     .10200E-01    -.37369E-01    -.25673E+03     .36445E+00     .30515E+00         .000      .000
   1.590     .12422E-01    -.33379E-01    -.23756E+03    -.50751E+00     .13265E+00         .000      .000
   1.600     .12739E-01    -.26108E-01    -.19270E+03    -.20670E+01    -.74087E-01         .000      .000
   1.610     .10926E-01    -.16217E-01    -.12536E+03    -.33665E+01    -.28476E+00         .000      .000
   1.620     .72199E-02    -.47207E-02    -.44329E+02    -.33525E+01    -.44251E+00         .000      .000
   1.630     .23370E-02     .71806E-02     .41529E+02    -.21003E+01    -.52201E+00         .000      .000
   1.640    -.29691E-02     .18206E-01     .12236E+03    -.17673E-02    -.52641E+00         .000      .000
   1.650    -.79162E-02     .27166E-01     .18778E+03     .21382E+01    -.44886E+00         .000      .000
   1.660    -.11742E-01     .33169E-01     .23217E+03     .29301E+01    -.31053E+00         .000      .000
   1.670    -.14063E-01     .35673E-01     .25285E+03     .21538E+01    -.15292E+00         .000      .000
   1.680    -.14869E-01     .34494E-01     .24701E+03     .86885E+00    -.15396E-01         .000      .000
   1.690    -.14531E-01     .29867E-01     .21567E+03    -.24809E+00     .74317E-01         .000      .000
   1.700    -.13568E-01     .22402E-01     .16450E+03    -.10810E+01     .10837E+00         .000      .000
   1.710    -.12569E-01     .12950E-01     .10110E+03    -.15969E+01     .80893E-01         .000      .000
   1.720    -.12105E-01     .24666E-02     .32523E+02    -.15834E+01     .71692E-02         .000      .000
   1.730    -.12497E-01    -.80814E-02    -.34879E+02    -.10560E+01    -.88064E-01         .000      .000
   1.740    -.13893E-01    -.17796E-01    -.94818E+02    -.29492E+00    -.19154E+00         .000      .000
   1.750    -.16252E-01    -.25935E-01    -.14288E+03     .56241E+00    -.27229E+00         .000      .000
   1.760    -.19159E-01    -.31941E-01    -.17593E+03     .12418E+01    -.29931E+00         .000      .000
   1.770    -.22055E-01    -.35489E-01    -.19198E+03     .16966E+01    -.27129E+00         .000      .000
   1.780    -.24439E-01    -.36515E-01    -.19285E+03     .24383E+01    -.19921E+00         .000      .000
   1.790    -.25932E-01    -.35143E-01    -.18162E+03     .33948E+01    -.95110E-01         .000      .000
   1.800    -.26290E-01    -.31610E-01    -.15931E+03     .37333E+01     .24014E-01         .000      .000
   1.810    -.25437E-01    -.26262E-01    -.12679E+03     .30321E+01     .14729E+00         .000      .000
   1.820    -.23298E-01    -.19557E-01    -.86710E+02     .16877E+01     .28467E+00         .000      .000
   1.830    -.19710E-01    -.12041E-01    -.42804E+02     .46437E+00     .43250E+00         .000      .000
