


 TIME HISTORY FOR STORY NO.  5



    TIME   DISPLACEMENT    STORY DRIFT    STORY SHEAR   ACCELERATION     VELOCITY          DAMAGE    DAMAGE
                                                                                          BEAM-SLAB  COL-WALL

    .000     .00000E+00     .00000E+00     .00000E+00     .00000E+00     .00000E+00         .000      .000
    .010    -.51138E-06     .10352E-10    -.17501E-03     .57178E-04    -.43286E-05         .000      .000
    .020    -.92538E-07     .26710E-07     .32654E-03    -.33829E-03    -.18472E-04         .000      .000
    .030    -.89386E-06     .46334E-07     .32014E-02    -.36189E-03    -.35221E-04         .000      .000
    .040    -.78944E-06    -.19174E-07    -.64856E-03     .67266E-03    -.51282E-04         .000      .000
    .050    -.19922E-05    -.19947E-07     .16652E-02    -.13880E-03    -.88397E-04         .000      .000
    .060    -.26548E-05    -.42997E-07     .24019E-02    -.25345E-03    -.15489E-03         .000      .000
    .070    -.51354E-05    -.63363E-07     .56794E-02    -.79586E-03    -.23455E-03         .000      .000
    .080    -.73875E-05    -.12910E-06     .75882E-02    -.78717E-03    -.32742E-03         .000      .000
    .090    -.11745E-04    -.22843E-06     .14732E-01    -.13306E-02    -.43780E-03         .000      .000
    .100    -.16197E-04    -.52152E-06     .18708E-01    -.59545E-03    -.56476E-03         .000      .000
    .110    -.23074E-04    -.10345E-05     .25715E-01    -.48699E-03    -.70130E-03         .000      .000
    .120    -.30270E-04    -.19092E-05     .29998E-01     .63027E-04    -.85277E-03         .000      .000
    .130    -.40168E-04    -.31848E-05     .37633E-01    -.36194E-03    -.10151E-02         .000      .000
    .140    -.50573E-04    -.50261E-05     .41141E-01    -.45123E-04    -.11783E-02         .000      .000
    .150    -.63181E-04    -.74620E-05     .46923E-01    -.47192E-03    -.11752E-02         .000      .000
    .160    -.73881E-04    -.10667E-04     .48503E-01     .13552E-03    -.11138E-02         .000      .000
    .170    -.86467E-04    -.14821E-04     .45212E-01     .27419E-02    -.13528E-02         .000      .000
    .180    -.10175E-03    -.20049E-04     .16414E-01     .83687E-02    -.18373E-02         .000      .000
    .190    -.12356E-03    -.25510E-04    -.55364E-02     .50782E-02    -.24286E-02         .000      .000
    .200    -.15072E-03    -.30522E-04     .93379E-02    -.70544E-02    -.31380E-02         .000      .000
    .210    -.18628E-03    -.35404E-04     .51821E-01    -.15403E-01    -.38298E-02         .000      .000
    .220    -.22659E-03    -.41119E-04     .84609E-01    -.10398E-01    -.43033E-02         .000      .000
    .230    -.27182E-03    -.48371E-04     .10974E+00     .18090E-02    -.46207E-02         .000      .000
    .240    -.31861E-03    -.58003E-04     .11540E+00     .16090E-01    -.48254E-02         .000      .000
    .250    -.36793E-03    -.70421E-04     .10428E+00     .23094E-01    -.49123E-02         .000      .000
    .260    -.41588E-03    -.85606E-04     .81997E-01     .19570E-01    -.47071E-02         .000      .000
    .270    -.45982E-03    -.10330E-03     .58150E-01     .94727E-02    -.38241E-02         .000      .000
    .280    -.49061E-03    -.12354E-03     .12131E-01     .61027E-02    -.24099E-02         .000      .000
    .290    -.50756E-03    -.14640E-03    -.85872E-01     .19011E-01    -.85504E-03         .000      .000
    .300    -.50772E-03    -.17111E-03    -.26768E+00     .43173E-01     .68714E-03         .000      .000
    .310    -.49592E-03    -.19484E-03    -.47704E+00     .52187E-01     .15930E-02         .000      .000
    .320    -.47907E-03    -.21411E-03    -.65605E+00     .37500E-01     .15382E-02         .000      .000
    .330    -.46639E-03    -.22560E-03    -.76597E+00     .56360E-02     .11165E-02         .000      .000
    .340    -.45483E-03    -.22685E-03    -.76883E+00    -.28999E-01     .12730E-02         .000      .000
    .350    -.43402E-03    -.21789E-03    -.66430E+00    -.41901E-01     .35115E-02         .000      .000
    .360    -.37554E-03    -.20206E-03    -.54892E+00    -.94424E-02     .84690E-02         .000      .000
    .370    -.26405E-03    -.18403E-03    -.53887E+00     .66471E-01     .13600E-01         .000      .000
    .380    -.11529E-03    -.16670E-03    -.76338E+00     .15691E+00     .15190E-01         .000      .000
    .390     .24092E-04    -.14522E-03    -.11402E+01     .17329E+00     .12050E-01         .000      .000
    .400     .11584E-03    -.10689E-03    -.12687E+01     .30233E-01     .59384E-02         .000      .000
    .410     .14194E-03    -.42390E-04    -.79400E+00    -.21593E+00    -.39653E-03         .000      .000
    .420     .10844E-03     .42813E-04     .12764E+00    -.35974E+00    -.64947E-02         .000      .000
    .430     .14248E-04     .13121E-03     .99915E+00    -.25285E+00    -.11915E-01         .000      .000
    .440    -.12422E-03     .20593E-03     .15212E+01     .17447E-01    -.15719E-01         .000      .000
    .450    -.30042E-03     .25809E-03     .18955E+01     .21143E+00    -.19678E-01         .000      .000
    .460    -.52275E-03     .28126E-03     .22902E+01     .21139E+00    -.25133E-01         .000      .000
    .470    -.80439E-03     .27049E-03     .26732E+01     .53834E-01    -.30956E-01         .000      .000
    .480    -.11393E-02     .22396E-03     .30338E+01    -.14783E+00    -.35960E-01         .000      .000
    .490    -.15170E-02     .13875E-03     .32826E+01    -.24362E+00    -.38924E-01         .000      .000
    .500    -.19012E-02     .95857E-05     .31753E+01    -.14944E+00    -.36920E-01         .000      .000
    .510    -.22383E-02    -.16623E-03     .26338E+01     .65631E-01    -.29840E-01         .000      .000
    .520    -.24936E-02    -.38819E-03     .16338E+01     .29252E+00    -.21488E-01         .000      .000
    .530    -.26741E-02    -.64897E-03     .92020E-01     .43616E+00    -.14986E-01         .000      .000
    .540    -.28046E-02    -.92616E-03    -.17489E+01     .38644E+00    -.11869E-01         .000      .000
    .550    -.29192E-02    -.11866E-02    -.33299E+01     .12859E+00    -.11043E-01         .000      .000
    .560    -.30186E-02    -.14020E-02    -.43474E+01    -.16879E+00    -.81095E-02         .000      .000
    .570    -.30665E-02    -.15577E-02    -.48694E+01    -.28237E+00    -.64735E-03         .000      .000
    .580    -.30235E-02    -.16548E-02    -.52759E+01    -.81366E-01     .92479E-02         .000      .000
    .590    -.28822E-02    -.16990E-02    -.59543E+01     .33105E+00     .18862E-01         .000      .000
    .600    -.26659E-02    -.16862E-02    -.67354E+01     .62244E+00     .22463E-01         .000      .000
    .610    -.24760E-02    -.16018E-02    -.69904E+01     .53093E+00     .13140E-01         .000      .000
    .620    -.24479E-02    -.14321E-02    -.62963E+01     .90260E-01    -.95553E-02         .000      .000
    .630    -.26990E-02    -.11709E-02    -.43208E+01    -.48555E+00    -.41714E-01         .000      .000
    .640    -.32904E-02    -.83287E-03    -.99289E+00    -.87995E+00    -.76198E-01         .000      .000
    .650    -.41910E-02    -.46502E-03     .31486E+01    -.83393E+00    -.10106E+00         .000      .000
    .660    -.52537E-02    -.13880E-03     .73101E+01    -.35635E+00    -.10862E+00         .000      .000
    .670    -.62679E-02     .62991E-04     .10628E+02     .33725E+00    -.87634E-01         .000      .000
    .680    -.68999E-02     .65682E-04     .12195E+02     .95260E+00    -.34847E-01         .000      .000
    .690    -.69422E-02    -.17763E-03     .11358E+02     .13183E+01     .24730E-01         .000      .000
    .700    -.64609E-02    -.67100E-03     .71035E+01     .15003E+01     .67645E-01         .000      .000
    .710    -.56484E-02    -.13320E-02     .57911E-02     .12158E+01     .92670E-01         .000      .000
    .720    -.46587E-02    -.20018E-02    -.66903E+01     .12665E+00     .10236E+00         .000      .000
    .730    -.36710E-02    -.25444E-02    -.10871E+02    -.11373E+01     .91536E-01         .000      .000
    .740    -.28766E-02    -.28987E-02    -.13613E+02    -.14804E+01     .66390E-01         .000      .000
    .750    -.23234E-02    -.30328E-02    -.15751E+02    -.80515E+00     .46961E-01         .000      .000
    .760    -.18473E-02    -.29238E-02    -.16123E+02     .85198E-01     .54240E-01         .000      .000
    .770    -.11414E-02    -.25966E-02    -.14253E+02     .68340E+00     .90616E-01         .000      .000
    .780    -.98067E-05    -.21289E-02    -.11877E+02     .11101E+01     .13464E+00         .000      .000
    .790     .14994E-02    -.15889E-02    -.11159E+02     .14468E+01     .16302E+00         .000      .000
    .800     .31709E-02    -.96697E-03    -.11667E+02     .12015E+01     .16732E+00         .000      .000
    .810     .47795E-02    -.19273E-03    -.10479E+02    -.40301E-01     .15172E+00         .000      .000
    .820     .61568E-02     .77295E-03    -.57514E+01    -.16751E+01     .12193E+00         .000      .000
    .830     .71922E-02     .18801E-02     .11855E+01    -.24321E+01     .84789E-01         .000      .000
    .840     .78379E-02     .30206E-02     .78274E+01    -.17269E+01     .43222E-01         .000      .000
    .850     .80465E-02     .40879E-02     .13200E+02    -.24961E+00    -.17799E-02         .000      .000
    .860     .77958E-02     .50010E-02     .17956E+02     .75420E+00    -.49114E-01         .000      .000
    .870     .70458E-02     .56967E-02     .23080E+02     .56976E+00    -.10201E+00         .000      .000
    .880     .57390E-02     .61109E-02     .28332E+02    -.44226E+00    -.15963E+00         .000      .000
    .890     .38750E-02     .61834E-02     .32533E+02    -.14046E+01    -.21047E+00         .000      .000
    .900     .16149E-02     .58706E-02     .34885E+02    -.16966E+01    -.23561E+00         .000      .000
    .910    -.67615E-03     .51356E-02     .34875E+02    -.11344E+01    -.21247E+00         .000      .000
    .920    -.24317E-02     .39411E-02     .31475E+02     .13592E+00    -.12866E+00         .000      .000
    .930    -.31151E-02     .22709E-02     .23202E+02     .17470E+01    -.47677E-02         .000      .000
    .940    -.25873E-02     .17936E-03     .87368E+01     .31756E+01     .10087E+00         .000      .000
    .950    -.13209E-02    -.21391E-02    -.11097E+02     .35784E+01     .13929E+00         .000      .000
    .960    -.21095E-04    -.43253E-02    -.31199E+02     .19650E+01     .11162E+00         .000      .000
    .970     .84536E-03    -.59667E-02    -.43966E+02    -.15648E+01     .64526E-01         .000      .000
    .980     .13594E-02    -.68147E-02    -.46163E+02    -.47520E+01     .45432E-01         .000      .000
    .990     .19169E-02    -.68948E-02    -.42165E+02    -.46450E+01     .75949E-01         .000      .000
   1.000     .30175E-02    -.64002E-02    -.39236E+02    -.62852E+00     .14773E+00         .000      .000
   1.010     .48651E-02    -.54909E-02    -.39797E+02     .44156E+01     .21621E+00         .000      .000
   1.020     .71967E-02    -.42000E-02    -.40553E+02     .65801E+01     .24012E+00         .000      .000
   1.030     .94711E-02    -.24644E-02    -.36217E+02     .40198E+01     .20514E+00         .000      .000
   1.040     .11099E-01    -.23159E-03    -.23421E+02    -.16396E+01     .11132E+00         .000      .000
   1.050     .11515E-01     .24226E-02    -.38317E+01    -.64006E+01    -.35682E-01         .000      .000
   1.060     .10332E-01     .52805E-02     .17680E+02    -.72121E+01    -.19815E+00         .000      .000
   1.070     .77117E-02     .80552E-02     .38497E+02    -.44231E+01    -.31353E+00         .000      .000
   1.080     .43097E-02     .10409E-01     .58678E+02    -.52815E+00    -.35552E+00         .000      .000
   1.090     .78034E-03     .11936E-01     .75380E+02     .26672E+01    -.34421E+00         .000      .000
   1.100    -.25027E-02     .12278E-01     .82962E+02     .43630E+01    -.31161E+00         .000      .000
   1.110    -.54484E-02     .11313E-01     .79834E+02     .38112E+01    -.27822E+00         .000      .000
   1.120    -.80794E-02     .91824E-02     .69538E+02     .10394E+01    -.24823E+00         .000      .000
   1.130    -.10429E-01     .61430E-02     .55488E+02    -.22437E+01    -.22208E+00         .000      .000
   1.140    -.12554E-01     .24481E-02     .37705E+02    -.35933E+01    -.20513E+00         .000      .000
   1.150    -.14556E-01    -.16620E-02     .14857E+02    -.19789E+01    -.19579E+00         .000      .000
   1.160    -.16435E-01    -.59025E-02    -.11620E+02     .11454E+01    -.17686E+00         .000      .000
   1.170    -.18024E-01    -.99430E-02    -.36933E+02     .32741E+01    -.13777E+00         .000      .000
   1.180    -.19138E-01    -.13486E-01    -.57331E+02     .33285E+01    -.82857E-01         .000      .000
   1.190    -.19647E-01    -.16312E-01    -.72807E+02     .21453E+01    -.17277E-01         .000      .000
   1.200    -.19422E-01    -.18241E-01    -.84256E+02     .95556E+00     .67149E-01         .000      .000
   1.210    -.18209E-01    -.19118E-01    -.91028E+02     .37711E+00     .17998E+00         .000      .000
   1.220    -.15753E-01    -.18867E-01    -.92344E+02     .60804E+00     .31356E+00         .000      .000
   1.230    -.11898E-01    -.17515E-01    -.89296E+02     .16040E+01     .45901E+00         .000      .000
   1.240    -.65939E-02    -.15148E-01    -.83181E+02     .26795E+01     .59776E+00         .000      .000
   1.250    -.94664E-04    -.11861E-01    -.73790E+02     .28899E+01     .69084E+00         .000      .000
   1.260     .69732E-02    -.77501E-02    -.60695E+02     .18434E+01     .70906E+00         .000      .000
   1.270     .13882E-01    -.29085E-02    -.42768E+02    -.39344E+00     .66599E+00         .000      .000
   1.280     .20216E-01     .25366E-02    -.18024E+02    -.32196E+01     .60027E+00         .000      .000
   1.290     .25895E-01     .83194E-02     .12747E+02    -.50798E+01     .53753E+00         .000      .000
   1.300     .31015E-01     .14005E-01     .43724E+02    -.43924E+01     .48955E+00         .000      .000
   1.310     .35708E-01     .19124E-01     .68722E+02    -.15298E+01     .44775E+00         .000      .000
   1.320     .39858E-01     .23318E-01     .85984E+02     .11870E+01     .37158E+00         .000      .000
   1.330     .43006E-01     .26395E-01     .97020E+02     .15487E+01     .25462E+00         .000      .000
   1.340     .44935E-01     .28309E-01     .10487E+03    -.11130E+01     .13288E+00         .000      .000
   1.350     .45659E-01     .29072E-01     .11195E+03    -.50918E+01     .11011E-01         .000      .000
   1.360     .45126E-01     .28626E-01     .11436E+03    -.68280E+01    -.11839E+00         .000      .000
   1.370     .43323E-01     .26925E-01     .10630E+03    -.47891E+01    -.23854E+00         .000      .000
   1.380     .40461E-01     .24090E-01     .89507E+02    -.12710E+01    -.32811E+00         .000      .000
   1.390     .36875E-01     .20348E-01     .69783E+02     .88643E+00    -.38410E+00         .000      .000
   1.400     .32887E-01     .15911E-01     .49053E+02     .10938E+01    -.40764E+00         .000      .000
   1.410     .28832E-01     .11003E-01     .26153E+02     .31228E+00    -.39802E+00         .000      .000
   1.420     .24983E-01     .59094E-02     .10251E+01    -.40783E+00    -.37124E+00         .000      .000
   1.430     .21414E-01     .96553E-03    -.24979E+02    -.45395E+00    -.34216E+00         .000      .000
   1.440     .18164E-01    -.34757E-02    -.49383E+02     .18679E-02    -.30596E+00         .000      .000
   1.450     .15340E-01    -.70896E-02    -.68495E+02     .33821E+00    -.25656E+00         .000      .000
   1.460     .13082E-01    -.96611E-02    -.80419E+02     .52682E+00    -.19217E+00         .000      .000
   1.470     .11549E-01    -.11104E-01    -.86236E+02     .95360E+00    -.11197E+00         .000      .000
   1.480     .10860E-01    -.11406E-01    -.87076E+02     .15354E+01    -.26585E-01         .000      .000
   1.490     .10950E-01    -.10595E-01    -.82906E+02     .18172E+01     .38705E-01         .000      .000
   1.500     .11523E-01    -.87384E-02    -.73447E+02     .14425E+01     .70341E-01         .000      .000
   1.510     .12282E-01    -.59417E-02    -.58014E+02     .26235E+00     .79399E-01         .000      .000
   1.520     .13061E-01    -.23793E-02    -.36077E+02    -.13289E+01     .73826E-01         .000      .000
   1.530     .13695E-01     .16566E-02    -.98855E+01    -.22111E+01     .49657E-01         .000      .000
   1.540     .13970E-01     .57909E-02     .16069E+02    -.16757E+01     .48817E-03         .000      .000
   1.550     .13607E-01     .96705E-02     .39326E+02    -.48101E+00    -.78380E-01         .000      .000
   1.560     .12317E-01     .13010E-01     .60305E+02    -.15078E-01    -.18348E+00         .000      .000
   1.570     .99002E-02     .15565E-01     .79682E+02    -.84678E+00    -.29969E+00         .000      .000
   1.580     .63576E-02     .17106E-01     .96395E+02    -.22562E+01    -.40508E+00         .000      .000
   1.590     .18663E-02     .17415E-01     .10759E+03    -.29117E+01    -.48974E+00         .000      .000
   1.600    -.33555E-02     .16326E-01     .10995E+03    -.20110E+01    -.54984E+00         .000      .000
   1.610    -.89538E-02     .13791E-01     .10200E+03    -.95915E-01    -.55742E+00         .000      .000
   1.620    -.14254E-01     .99054E-02     .85532E+02     .14356E+01    -.49050E+00         .000      .000
   1.630    -.18603E-01     .48579E-02     .62333E+02     .21172E+01    -.37540E+00         .000      .000
   1.640    -.21712E-01    -.11035E-02     .30797E+02     .27290E+01    -.24521E+00         .000      .000
   1.650    -.23507E-01    -.75725E-02    -.89991E+01     .32833E+01    -.11526E+00         .000      .000
   1.660    -.24059E-01    -.13956E-01    -.50880E+02     .28287E+01     .20879E-02         .000      .000
   1.670    -.23548E-01    -.19630E-01    -.88116E+02     .14077E+01     .95157E-01         .000      .000
   1.680    -.22272E-01    -.24076E-01    -.11774E+03     .19797E+00     .15364E+00         .000      .000
   1.690    -.20576E-01    -.26910E-01    -.13863E+03     .52958E-01     .18208E+00         .000      .000
   1.700    -.18656E-01    -.27870E-01    -.14893E+03     .67219E+00     .20275E+00         .000      .000
   1.710    -.16462E-01    -.26851E-01    -.14632E+03     .11942E+01     .24076E+00         .000      .000
   1.720    -.13722E-01    -.23954E-01    -.13078E+03     .13296E+01     .31445E+00         .000      .000
   1.730    -.10091E-01    -.19480E-01    -.10582E+03     .14763E+01     .41288E+00         .000      .000
   1.740    -.54784E-02    -.13848E-01    -.76432E+02     .19332E+01     .50704E+00         .000      .000
   1.750     .20950E-04    -.74775E-02    -.46057E+02     .21864E+01     .59216E+00         .000      .000
   1.760     .63107E-02    -.72450E-03    -.14447E+02     .12309E+01     .66083E+00         .000      .000
   1.770     .13067E-01     .60582E-02     .18653E+02    -.72882E+00     .67894E+00         .000      .000
   1.780     .19681E-01     .12480E-01     .49479E+02    -.22557E+01     .63493E+00         .000      .000
   1.790     .25610E-01     .18209E-01     .75086E+02    -.28892E+01     .54393E+00         .000      .000
   1.800     .30414E-01     .23008E-01     .96698E+02    -.32594E+01     .40934E+00         .000      .000
   1.810     .33694E-01     .26662E-01     .11451E+03    -.34573E+01     .24409E+00         .000      .000
   1.820     .35293E-01     .28967E-01     .12668E+03    -.33429E+01     .77953E-01         .000      .000
   1.830     .35311E-01     .29791E-01     .13254E+03    -.30794E+01    -.70747E-01         .000      .000
