


 TIME HISTORY FOR STORY NO.  5



    TIME   DISPLACEMENT    STORY DRIFT    STORY SHEAR   ACCELERATION     VELOCITY          DAMAGE    DAMAGE
                                                                                          BEAM-SLAB  COL-WALL

    .000     .00000E+00     .00000E+00     .00000E+00     .00000E+00     .00000E+00         .000      .000
    .010    -.20161E-05    -.10620E-09    -.40843E-03     .30692E-03    -.38429E-03         .000      .000
    .020    -.77925E-05     .78481E-07    -.25158E-02     .19503E-03    -.81280E-03         .000      .000
    .030    -.18436E-04     .55875E-06     .10711E-01    -.44443E-02    -.12912E-02         .000      .000
    .040    -.33886E-04     .13773E-05     .48839E-01    -.10477E-01    -.18475E-02         .000      .000
    .050    -.55358E-04     .17868E-05     .92059E-01    -.10070E-01    -.23934E-02         .000      .000
    .060    -.81120E-04     .10019E-05     .12389E+00    -.35493E-02    -.27519E-02         .000      .000
    .070    -.10981E-03    -.15050E-05     .15342E+00     .24084E-02    -.29367E-02         .000      .000
    .080    -.13962E-03    -.64606E-05     .17283E+00     .72443E-02    -.30504E-02         .000      .000
    .090    -.17101E-03    -.14427E-04     .16857E+00     .10694E-01    -.32208E-02         .000      .000
    .100    -.20513E-03    -.25356E-04     .14119E+00     .10499E-01    -.37198E-02         .000      .000
    .110    -.24661E-03    -.38617E-04     .10574E+00     .50947E-02    -.45800E-02         .000      .000
    .120    -.29683E-03    -.53317E-04     .79044E-01    -.47737E-02    -.54712E-02         .000      .000
    .130    -.35532E-03    -.68785E-04     .84660E-01    -.15410E-01    -.61464E-02         .000      .000
    .140    -.41927E-03    -.85519E-04     .10493E+00    -.13770E-01    -.66723E-02         .000      .000
    .150    -.48739E-03    -.10471E-03     .95417E-01     .59666E-02    -.67869E-02         .000      .000
    .160    -.55252E-03    -.12690E-03     .44431E-01     .29471E-01    -.61626E-02         .000      .000
    .170    -.60949E-03    -.15186E-03    -.17441E-01     .40076E-01    -.51936E-02         .000      .000
    .180    -.65610E-03    -.17958E-03    -.10968E+00     .42723E-01    -.41334E-02         .000      .000
    .190    -.69172E-03    -.20913E-03    -.25171E+00     .39992E-01    -.29421E-02         .000      .000
    .200    -.71302E-03    -.23811E-03    -.40491E+00     .27864E-01    -.11755E-02         .000      .000
    .210    -.71238E-03    -.26417E-03    -.53650E+00     .14011E-01     .14493E-02         .000      .000
    .220    -.68273E-03    -.28615E-03    -.67200E+00     .17666E-01     .44719E-02         .000      .000
    .230    -.62407E-03    -.30335E-03    -.86978E+00     .46937E-01     .71551E-02         .000      .000
    .240    -.54475E-03    -.31333E-03    -.11277E+01     .77298E-01     .82887E-02         .000      .000
    .250    -.46211E-03    -.31124E-03    -.13433E+01     .69950E-01     .82682E-02         .000      .000
    .260    -.38268E-03    -.29177E-03    -.13789E+01     .91621E-02     .72628E-02         .000      .000
    .270    -.32402E-03    -.25287E-03    -.11673E+01    -.65115E-01     .41356E-02         .000      .000
    .280    -.30351E-03    -.19761E-03    -.84137E+00    -.86008E-01    -.41352E-04         .000      .000
    .290    -.32454E-03    -.12973E-03    -.43323E+00    -.65904E-01    -.41442E-02         .000      .000
    .300    -.38323E-03    -.54286E-04     .14490E+00    -.43228E-01    -.73042E-02         .000      .000
    .310    -.46395E-03     .18708E-04     .80366E+00    -.14510E-01    -.84591E-02         .000      .000
    .320    -.54903E-03     .77285E-04     .13805E+01     .24419E-01    -.85983E-02         .000      .000
    .330    -.64030E-03     .11114E-03     .17325E+01     .70198E-01    -.10054E-01         .000      .000
    .340    -.75512E-03     .11547E-03     .17939E+01     .92690E-01    -.13031E-01         .000      .000
    .350    -.90433E-03     .93497E-04     .17522E+01     .33824E-01    -.17043E-01         .000      .000
    .360    -.11068E-02     .50041E-04     .18275E+01    -.84491E-01    -.24251E-01         .000      .000
    .370    -.13939E-02    -.15246E-04     .19022E+01    -.14784E+00    -.32778E-01         .000      .000
    .380    -.17479E-02    -.10273E-03     .18768E+01    -.13063E+00    -.37000E-01         .000      .000
    .390    -.21125E-02    -.21239E-03     .19303E+01    -.78482E-01    -.34825E-01         .000      .000
    .400    -.24239E-02    -.35336E-03     .18348E+01     .59756E-01    -.26495E-01         .000      .000
    .410    -.26262E-02    -.53587E-03     .10848E+01     .28985E+00    -.13329E-01         .000      .000
    .420    -.26867E-02    -.75521E-03    -.36435E+00     .46713E+00     .93354E-03         .000      .000
    .430    -.26214E-02    -.99057E-03    -.21825E+01     .46076E+00     .11012E-01         .000      .000
    .440    -.24994E-02    -.12111E-02    -.40128E+01     .26638E+00     .11226E-01         .000      .000
    .450    -.24322E-02    -.13810E-02    -.54585E+01    -.31471E-01     .90726E-03         .000      .000
    .460    -.25090E-02    -.14679E-02    -.60683E+01    -.32450E+00    -.17683E-01         .000      .000
    .470    -.28157E-02    -.14552E-02    -.55074E+01    -.48888E+00    -.45165E-01         .000      .000
    .480    -.34207E-02    -.13527E-02    -.39657E+01    -.41484E+00    -.75155E-01         .000      .000
    .490    -.42921E-02    -.11876E-02    -.16446E+01    -.20195E+00    -.97233E-01         .000      .000
    .500    -.53290E-02    -.10018E-02     .14656E+01    -.79720E-02    -.10842E+00         .000      .000
    .510    -.64329E-02    -.85906E-03     .45867E+01     .22532E+00    -.11127E+00         .000      .000
    .520    -.75107E-02    -.82259E-03     .65915E+01     .50921E+00    -.10108E+00         .000      .000
    .530    -.83815E-02    -.92547E-03     .73383E+01     .62324E+00    -.69116E-01         .000      .000
    .540    -.88218E-02    -.11798E-02     .71424E+01     .52117E+00    -.15769E-01         .000      .000
    .550    -.86394E-02    -.15970E-02     .52025E+01     .54878E+00     .54923E-01         .000      .000
    .560    -.76843E-02    -.21646E-02     .44270E+00     .88337E+00     .13729E+00         .000      .000
    .570    -.58790E-02    -.28162E-02    -.68432E+01     .12449E+01     .22387E+00         .000      .000
    .580    -.32364E-02    -.34393E-02    -.15406E+02     .12866E+01     .30153E+00         .000      .000
    .590     .76546E-04    -.38969E-02    -.23951E+02     .92484E+00     .35675E+00         .000      .000
    .600     .38269E-02    -.40442E-02    -.31301E+02     .28669E+00     .39051E+00         .000      .000
    .610     .78245E-02    -.37439E-02    -.35904E+02    -.47526E+00     .40567E+00         .000      .000
    .620     .11884E-01    -.29068E-02    -.36676E+02    -.10390E+01     .40421E+00         .000      .000
    .630     .15861E-01    -.15165E-02    -.33922E+02    -.10842E+01     .38849E+00         .000      .000
    .640     .19612E-01     .38811E-03    -.28055E+02    -.74971E+00     .36013E+00         .000      .000
    .650     .23023E-01     .27276E-02    -.19106E+02    -.47489E+00     .31949E+00         .000      .000
    .660     .25928E-01     .53843E-02    -.71860E+01    -.58725E+00     .25672E+00         .000      .000
    .670     .28040E-01     .82060E-02     .69770E+01    -.10581E+01     .15876E+00         .000      .000
    .680     .28989E-01     .11026E-01     .22517E+02    -.17353E+01     .26593E-01         .000      .000
    .690     .28515E-01     .13676E-01     .39378E+02    -.25553E+01    -.12258E+00         .000      .000
    .700     .26535E-01     .15965E-01     .57472E+02    -.32489E+01    -.27235E+00         .000      .000
    .710     .23123E-01     .17644E-01     .74751E+02    -.32083E+01    -.40535E+00         .000      .000
    .720     .18584E-01     .18445E-01     .87924E+02    -.21864E+01    -.49177E+00         .000      .000
    .730     .13525E-01     .18149E-01     .94893E+02    -.70860E+00    -.50727E+00         .000      .000
    .740     .86351E-02     .16608E-01     .94295E+02     .66986E+00    -.46397E+00         .000      .000
    .750     .43359E-02     .13771E-01     .83879E+02     .18506E+01    -.39376E+00         .000      .000
    .760     .79837E-03     .97550E-02     .62809E+02     .24950E+01    -.31227E+00         .000      .000
    .770    -.19109E-02     .48925E-02     .34670E+02     .19293E+01    -.23138E+00         .000      .000
    .780    -.38946E-02    -.37171E-03     .43567E+01     .42580E+00    -.16972E+00         .000      .000
    .790    -.53720E-02    -.55941E-02    -.25954E+02    -.71515E+00    -.12760E+00         .000      .000
    .800    -.64282E-02    -.10351E-01    -.54645E+02    -.76052E+00    -.79961E-01         .000      .000
    .810    -.68929E-02    -.14262E-01    -.78658E+02     .19927E-01    -.90270E-02         .000      .000
    .820    -.65355E-02    -.17059E-01    -.96209E+02     .12642E+01     .83776E-01         .000      .000
    .830    -.51520E-02    -.18594E-01    -.10790E+03     .26126E+01     .19598E+00         .000      .000
    .840    -.25930E-02    -.18777E-01    -.11365E+03     .32873E+01     .31474E+00         .000      .000
    .850     .10862E-02    -.17556E-01    -.11217E+03     .27702E+01     .41650E+00         .000      .000
    .860     .55808E-02    -.14949E-01    -.10310E+03     .13642E+01     .47165E+00         .000      .000
    .870     .10296E-01    -.11044E-01    -.86655E+02    -.29816E+00     .46024E+00         .000      .000
    .880     .14582E-01    -.60032E-02    -.62791E+02    -.17755E+01     .38777E+00         .000      .000
    .890     .17863E-01    -.86561E-04    -.31265E+02    -.28905E+01     .25871E+00         .000      .000
    .900     .19605E-01     .63110E-02     .64111E+01    -.33434E+01     .84716E-01         .000      .000
    .910     .19499E-01     .12681E-01     .46680E+02    -.30524E+01    -.10666E+00         .000      .000
    .920     .17468E-01     .18476E-01     .86520E+02    -.25066E+01    -.29933E+00         .000      .000
    .930     .13562E-01     .23144E-01     .12271E+03    -.20268E+01    -.47718E+00         .000      .000
    .940     .80834E-02     .26178E-01     .15129E+03    -.16702E+01    -.60755E+00         .000      .000
    .950     .17031E-02     .27190E-01     .16949E+03    -.14781E+01    -.65038E+00         .000      .000
    .960    -.45450E-02     .25913E-01     .17467E+03    -.10175E+01    -.57933E+00         .000      .000
    .970    -.96297E-02     .22222E-01     .16282E+03     .46158E+00    -.43204E+00         .000      .000
    .980    -.13179E-01     .16215E-01     .13039E+03     .30290E+01    -.28285E+00         .000      .000
    .990    -.15385E-01     .83456E-02     .79074E+02     .50518E+01    -.16408E+00         .000      .000
   1.000    -.16626E-01    -.56267E-03     .19408E+02     .41202E+01    -.95446E-01         .000      .000
   1.010    -.17474E-01    -.95553E-02    -.36843E+02     .42846E+00    -.79757E-01         .000      .000
   1.020    -.18247E-01    -.17804E-01    -.85389E+02    -.29527E+01    -.70623E-01         .000      .000
   1.030    -.18777E-01    -.24659E-01    -.12514E+03    -.35218E+01    -.28379E-01         .000      .000
   1.040    -.18650E-01    -.29672E-01    -.15547E+03    -.79393E+00     .62925E-01         .000      .000
   1.050    -.17355E-01    -.32590E-01    -.17683E+03     .36616E+01     .20231E+00         .000      .000
   1.060    -.14502E-01    -.33275E-01    -.18780E+03     .68896E+01     .37116E+00         .000      .000
   1.070    -.99425E-02    -.31673E-01    -.18589E+03     .68754E+01     .53661E+00         .000      .000
   1.080    -.39117E-02    -.27841E-01    -.17063E+03     .39677E+01     .66004E+00         .000      .000
   1.090     .30929E-02    -.21950E-01    -.14357E+03     .95153E-01     .73463E+00         .000      .000
   1.100     .10697E-01    -.14282E-01    -.10621E+03    -.29239E+01     .78441E+00         .000      .000
   1.110     .18746E-01    -.52753E-02    -.60236E+02    -.40258E+01     .82399E+00         .000      .000
   1.120     .27180E-01     .44467E-02    -.10372E+02    -.28419E+01     .86464E+00         .000      .000
   1.130     .36080E-01     .14167E-01     .37186E+02    -.35145E+00     .91691E+00         .000      .000
   1.140     .45537E-01     .23230E-01     .78931E+02     .14011E+01     .97420E+00         .000      .000
   1.150     .55425E-01     .31104E-01     .11290E+03     .11462E+01     .98972E+00         .000      .000
   1.160     .64974E-01     .37419E-01     .13692E+03    -.84891E+00     .89823E+00         .000      .000
   1.170     .72948E-01     .42023E-01     .15047E+03    -.37612E+01     .67460E+00         .000      .000
   1.180     .77989E-01     .44982E-01     .15771E+03    -.71010E+01     .30820E+00         .000      .000
   1.190     .78759E-01     .46426E-01     .16373E+03    -.98873E+01    -.16349E+00         .000      .000
   1.200     .74647E-01     .46406E-01     .17002E+03    -.10857E+02    -.65630E+00         .000      .000
   1.210     .65686E-01     .44849E-01     .17615E+03    -.94837E+01    -.11331E+01         .000      .000
   1.220     .52099E-01     .41553E-01     .17790E+03    -.57379E+01    -.15760E+01         .000      .000
   1.230     .34437E-01     .36336E-01     .17065E+03    -.12396E+01    -.19387E+01         .000      .000
   1.240     .13660E-01     .29192E-01     .15646E+03     .11574E+01    -.22017E+01         .000      .000
   1.250    -.92623E-02     .20219E-01     .13782E+03     .94974E+00    -.23639E+01         .000      .000
   1.260    -.33220E-01     .95401E-02     .11148E+03     .24365E+00    -.24061E+01         .000      .000
   1.270    -.56944E-01    -.26013E-02     .74775E+02     .74764E+00    -.23160E+01         .000      .000
   1.280    -.79131E-01    -.15827E-01     .27738E+02     .29865E+01    -.21032E+01         .000      .000
   1.290    -.98703E-01    -.29649E-01    -.28963E+02     .64349E+01    -.17995E+01         .000      .000
   1.300    -.11493E+00    -.43445E-01    -.92681E+02     .95581E+01    -.14377E+01         .000      .000
   1.310    -.12736E+00    -.56448E-01    -.15771E+03     .10729E+02    -.10470E+01         .000      .000
   1.320    -.13588E+00    -.67832E-01    -.21735E+03     .95962E+01    -.65907E+00         .000      .000
   1.330    -.14058E+00    -.76819E-01    -.26668E+03     .73654E+01    -.28119E+00         .000      .000
   1.340    -.14155E+00    -.82763E-01    -.30228E+03     .55672E+01     .83187E-01         .000      .000
   1.350    -.13894E+00    -.85215E-01    -.32149E+03     .51121E+01     .44094E+00         .000      .000
   1.360    -.13267E+00    -.83984E-01    -.32350E+03     .59553E+01     .81599E+00         .000      .000
   1.370    -.12260E+00    -.79124E-01    -.30809E+03     .71072E+01     .11955E+01         .000      .000
   1.380    -.10888E+00    -.70939E-01    -.27739E+03     .78108E+01     .15377E+01         .000      .000
   1.390    -.92267E-01    -.59889E-01    -.23528E+03     .74823E+01     .17534E+01         .000      .000
   1.400    -.74611E-01    -.46472E-01    -.18315E+03     .53621E+01     .17302E+01         .000      .000
   1.410    -.58462E-01    -.31175E-01    -.11925E+03     .91227E+00     .14673E+01         .000      .000
   1.420    -.45712E-01    -.14534E-01    -.38178E+02    -.58441E+01     .10707E+01         .000      .000
   1.430    -.37181E-01     .26157E-02     .62129E+02    -.12277E+02     .63601E+00         .000      .000
   1.440    -.32902E-01     .18930E-01     .16826E+03    -.13301E+02     .22987E+00         .000      .000
   1.450    -.32226E-01     .32817E-01     .25908E+03    -.72132E+01    -.69584E-01         .000      .000
   1.460    -.33769E-01     .42919E-01     .32352E+03     .13447E+01    -.21404E+00         .000      .000
   1.470    -.35970E-01     .48297E-01     .36026E+03     .64750E+01    -.19918E+00         .000      .000
   1.480    -.37337E-01     .48422E-01     .36657E+03     .63966E+01    -.59448E-01         .000      .000
   1.490    -.36981E-01     .43253E-01     .33807E+03     .32490E+01     .13479E+00         .000      .000
   1.500    -.34653E-01     .33323E-01     .27326E+03     .26886E+00     .32634E+00         .000      .000
   1.510    -.30566E-01     .19749E-01     .17846E+03    -.10935E+01     .48455E+00         .000      .000
   1.520    -.25077E-01     .40584E-02     .67072E+02    -.12002E+01     .60793E+00         .000      .000
   1.530    -.18558E-01    -.12098E-01    -.47133E+02    -.56219E+00     .68594E+00         .000      .000
   1.540    -.11552E-01    -.27164E-01    -.15450E+03     .78367E+00     .70600E+00         .000      .000
   1.550    -.45086E-02    -.39741E-01    -.24758E+03     .22832E+01     .70457E+00         .000      .000
   1.560     .24990E-02    -.48618E-01    -.31663E+03     .25487E+01     .69057E+00         .000      .000
   1.570     .90602E-02    -.52938E-01    -.35392E+03     .15141E+01     .60428E+00         .000      .000
   1.580     .14281E-01    -.52316E-01    -.35943E+03     .51023E+00     .42722E+00         .000      .000
   1.590     .17391E-01    -.46731E-01    -.33258E+03    -.71051E+00     .18571E+00         .000      .000
   1.600     .17835E-01    -.36551E-01    -.26978E+03    -.28938E+01    -.10372E+00         .000      .000
   1.610     .15296E-01    -.22704E-01    -.17550E+03    -.47131E+01    -.39866E+00         .000      .000
   1.620     .10108E-01    -.66089E-02    -.62060E+02    -.46936E+01    -.61951E+00         .000      .000
   1.630     .32718E-02     .10053E-01     .58140E+02    -.29404E+01    -.73081E+00         .000      .000
   1.640    -.41568E-02     .25488E-01     .17131E+03    -.24742E-02    -.73698E+00         .000      .000
   1.650    -.11083E-01     .38033E-01     .26289E+03     .29935E+01    -.62840E+00         .000      .000
   1.660    -.16439E-01     .46437E-01     .32503E+03     .41021E+01    -.43474E+00         .000      .000
   1.670    -.19689E-01     .49942E-01     .35399E+03     .30153E+01    -.21408E+00         .000      .000
   1.680    -.20816E-01     .48291E-01     .34581E+03     .12164E+01    -.21554E-01         .000      .000
   1.690    -.20344E-01     .41814E-01     .30194E+03    -.34733E+00     .10404E+00         .000      .000
   1.700    -.18995E-01     .31362E-01     .23031E+03    -.15134E+01     .15172E+00         .000      .000
   1.710    -.17597E-01     .18129E-01     .14155E+03    -.22356E+01     .11325E+00         .000      .000
   1.720    -.16947E-01     .34533E-02     .45532E+02    -.22167E+01     .10037E-01         .000      .000
   1.730    -.17496E-01    -.11314E-01    -.48831E+02    -.14784E+01    -.12329E+00         .000      .000
   1.740    -.19451E-01    -.24915E-01    -.13275E+03    -.41288E+00    -.26816E+00         .000      .000
   1.750    -.22753E-01    -.36308E-01    -.20003E+03     .78737E+00    -.38120E+00         .000      .000
   1.760    -.26823E-01    -.44718E-01    -.24630E+03     .17385E+01    -.41903E+00         .000      .000
   1.770    -.30877E-01    -.49685E-01    -.26878E+03     .23752E+01    -.37981E+00         .000      .000
   1.780    -.34214E-01    -.51120E-01    -.26999E+03     .34136E+01    -.27889E+00         .000      .000
   1.790    -.36304E-01    -.49201E-01    -.25426E+03     .47527E+01    -.13315E+00         .000      .000
   1.800    -.36806E-01    -.44255E-01    -.22303E+03     .52267E+01     .33619E-01         .000      .000
   1.810    -.35612E-01    -.36766E-01    -.17750E+03     .42449E+01     .20621E+00         .000      .000
   1.820    -.32617E-01    -.27380E-01    -.12139E+03     .23628E+01     .39854E+00         .000      .000
   1.830    -.27594E-01    -.16857E-01    -.59926E+02     .65012E+00     .60550E+00         .000      .000
