


 TIME HISTORY FOR STORY NO.  5



    TIME   DISPLACEMENT    STORY DRIFT    STORY SHEAR   ACCELERATION     VELOCITY          DAMAGE    DAMAGE
                                                                                          BEAM-SLAB  COL-WALL

    .000     .00000E+00     .00000E+00     .00000E+00     .00000E+00     .00000E+00         .000      .000
    .010    -.23042E-05    -.12137E-09    -.46678E-03     .35076E-03    -.43919E-03         .000      .000
    .020    -.89057E-05     .89693E-07    -.28752E-02     .22289E-03    -.92891E-03         .000      .000
    .030    -.21069E-04     .63857E-06     .12241E-01    -.50793E-02    -.14757E-02         .000      .000
    .040    -.38727E-04     .15740E-05     .55816E-01    -.11974E-01    -.21115E-02         .000      .000
    .050    -.63266E-04     .20420E-05     .10521E+00    -.11508E-01    -.27353E-02         .000      .000
    .060    -.92709E-04     .11450E-05     .14159E+00    -.40564E-02    -.31450E-02         .000      .000
    .070    -.12550E-03    -.17200E-05     .17533E+00     .27524E-02    -.33563E-02         .000      .000
    .080    -.15956E-03    -.73835E-05     .19752E+00     .82792E-02    -.34862E-02         .000      .000
    .090    -.19544E-03    -.16488E-04     .19265E+00     .12222E-01    -.36809E-02         .000      .000
    .100    -.23443E-03    -.28979E-04     .16136E+00     .11999E-01    -.42513E-02         .000      .000
    .110    -.28184E-03    -.44133E-04     .12084E+00     .58225E-02    -.52343E-02         .000      .000
    .120    -.33923E-03    -.60934E-04     .90336E-01    -.54557E-02    -.62528E-02         .000      .000
    .130    -.40608E-03    -.78612E-04     .96754E-01    -.17612E-01    -.70244E-02         .000      .000
    .140    -.47917E-03    -.97736E-04     .11992E+00    -.15737E-01    -.76254E-02         .000      .000
    .150    -.55702E-03    -.11967E-03     .10905E+00     .68189E-02    -.77565E-02         .000      .000
    .160    -.63145E-03    -.14503E-03     .50779E-01     .33681E-01    -.70430E-02         .000      .000
    .170    -.69656E-03    -.17356E-03    -.19932E-01     .45801E-01    -.59355E-02         .000      .000
    .180    -.74983E-03    -.20523E-03    -.12535E+00     .48827E-01    -.47239E-02         .000      .000
    .190    -.79053E-03    -.23901E-03    -.28766E+00     .45706E-01    -.33624E-02         .000      .000
    .200    -.81488E-03    -.27213E-03    -.46276E+00     .31845E-01    -.13435E-02         .000      .000
    .210    -.81415E-03    -.30190E-03    -.61315E+00     .16012E-01     .16564E-02         .000      .000
    .220    -.78026E-03    -.32703E-03    -.76801E+00     .20190E-01     .51108E-02         .000      .000
    .230    -.71322E-03    -.34669E-03    -.99403E+00     .53643E-01     .81772E-02         .000      .000
    .240    -.62257E-03    -.35809E-03    -.12888E+01     .88341E-01     .94728E-02         .000      .000
    .250    -.52813E-03    -.35571E-03    -.15352E+01     .79943E-01     .94493E-02         .000      .000
    .260    -.43735E-03    -.33345E-03    -.15758E+01     .10471E-01     .83003E-02         .000      .000
    .270    -.37031E-03    -.28899E-03    -.13341E+01    -.74418E-01     .47264E-02         .000      .000
    .280    -.34687E-03    -.22584E-03    -.96157E+00    -.98295E-01    -.47260E-04         .000      .000
    .290    -.37091E-03    -.14826E-03    -.49512E+00    -.75319E-01    -.47362E-02         .000      .000
    .300    -.43798E-03    -.62042E-04     .16560E+00    -.49403E-01    -.83476E-02         .000      .000
    .310    -.53023E-03     .21380E-04     .91847E+00    -.16583E-01    -.96676E-02         .000      .000
    .320    -.62746E-03     .88325E-04     .15777E+01     .27907E-01    -.98266E-02         .000      .000
    .330    -.73177E-03     .12701E-03     .19800E+01     .80227E-01    -.11490E-01         .000      .000
    .340    -.86299E-03     .13196E-03     .20502E+01     .10593E+00    -.14893E-01         .000      .000
    .350    -.10335E-02     .10685E-03     .20025E+01     .38656E-01    -.19478E-01         .000      .000
    .360    -.12649E-02     .57190E-04     .20886E+01    -.96561E-01    -.27716E-01         .000      .000
    .370    -.15930E-02    -.17424E-04     .21739E+01    -.16896E+00    -.37461E-01         .000      .000
    .380    -.19976E-02    -.11740E-03     .21449E+01    -.14929E+00    -.42285E-01         .000      .000
    .390    -.24143E-02    -.24273E-03     .22061E+01    -.89693E-01    -.39800E-01         .000      .000
    .400    -.27702E-02    -.40383E-03     .20970E+01     .68292E-01    -.30280E-01         .000      .000
    .410    -.30014E-02    -.61242E-03     .12398E+01     .33126E+00    -.15233E-01         .000      .000
    .420    -.30705E-02    -.86310E-03    -.41640E+00     .53386E+00     .10669E-02         .000      .000
    .430    -.29959E-02    -.11321E-02    -.24943E+01     .52659E+00     .12585E-01         .000      .000
    .440    -.28565E-02    -.13841E-02    -.45860E+01     .30443E+00     .12830E-01         .000      .000
    .450    -.27796E-02    -.15783E-02    -.62383E+01    -.35967E-01     .10369E-02         .000      .000
    .460    -.28674E-02    -.16776E-02    -.69352E+01    -.37086E+00    -.20209E-01         .000      .000
    .470    -.32179E-02    -.16631E-02    -.62941E+01    -.55872E+00    -.51617E-01         .000      .000
    .480    -.39094E-02    -.15460E-02    -.45322E+01    -.47410E+00    -.85891E-01         .000      .000
    .490    -.49053E-02    -.13572E-02    -.18795E+01    -.23080E+00    -.11112E+00         .000      .000
    .500    -.60902E-02    -.11449E-02     .16750E+01    -.91108E-02    -.12391E+00         .000      .000
    .510    -.73519E-02    -.98178E-03     .52419E+01     .25751E+00    -.12717E+00         .000      .000
    .520    -.85836E-02    -.94011E-03     .75332E+01     .58195E+00    -.11552E+00         .000      .000
    .530    -.95788E-02    -.10577E-02     .83866E+01     .71228E+00    -.78990E-01         .000      .000
    .540    -.10082E-01    -.13484E-02     .81628E+01     .59563E+00    -.18021E-01         .000      .000
    .550    -.98736E-02    -.18252E-02     .59457E+01     .62717E+00     .62769E-01         .000      .000
    .560    -.87821E-02    -.24738E-02     .50595E+00     .10096E+01     .15691E+00         .000      .000
    .570    -.67189E-02    -.32185E-02    -.78208E+01     .14227E+01     .25585E+00         .000      .000
    .580    -.36987E-02    -.39306E-02    -.17607E+02     .14704E+01     .34460E+00         .000      .000
    .590     .87481E-04    -.44536E-02    -.27373E+02     .10570E+01     .40772E+00         .000      .000
    .600     .43736E-02    -.46219E-02    -.35773E+02     .32765E+00     .44630E+00         .000      .000
    .610     .89423E-02    -.42787E-02    -.41034E+02    -.54316E+00     .46362E+00         .000      .000
    .620     .13582E-01    -.33220E-02    -.41915E+02    -.11875E+01     .46196E+00         .000      .000
    .630     .18127E-01    -.17332E-02    -.38768E+02    -.12391E+01     .44399E+00         .000      .000
    .640     .22414E-01     .44356E-03    -.32062E+02    -.85681E+00     .41158E+00         .000      .000
    .650     .26312E-01     .31173E-02    -.21835E+02    -.54273E+00     .36513E+00         .000      .000
    .660     .29633E-01     .61535E-02    -.82126E+01    -.67114E+00     .29339E+00         .000      .000
    .670     .32046E-01     .93783E-02     .79737E+01    -.12093E+01     .18144E+00         .000      .000
    .680     .33131E-01     .12601E-01     .25734E+02    -.19832E+01     .30392E-01         .000      .000
    .690     .32588E-01     .15630E-01     .45003E+02    -.29204E+01    -.14009E+00         .000      .000
    .700     .30326E-01     .18246E-01     .65683E+02    -.37130E+01    -.31126E+00         .000      .000
    .710     .26427E-01     .20164E-01     .85429E+02    -.36667E+01    -.46325E+00         .000      .000
    .720     .21239E-01     .21080E-01     .10048E+03    -.24987E+01    -.56202E+00         .000      .000
    .730     .15458E-01     .20741E-01     .10845E+03    -.80983E+00    -.57974E+00         .000      .000
    .740     .98687E-02     .18981E-01     .10777E+03     .76556E+00    -.53025E+00         .000      .000
    .750     .49553E-02     .15738E-01     .95862E+02     .21149E+01    -.45001E+00         .000      .000
    .760     .91242E-03     .11149E-01     .71782E+02     .28514E+01    -.35688E+00         .000      .000
    .770    -.21839E-02     .55914E-02     .39623E+02     .22050E+01    -.26444E+00         .000      .000
    .780    -.44509E-02    -.42481E-03     .49791E+01     .48663E+00    -.19397E+00         .000      .000
    .790    -.61395E-02    -.63932E-02    -.29661E+02    -.81732E+00    -.14582E+00         .000      .000
    .800    -.73465E-02    -.11830E-01    -.62451E+02    -.86917E+00    -.91384E-01         .000      .000
    .810    -.78776E-02    -.16299E-01    -.89895E+02     .22773E-01    -.10317E-01         .000      .000
    .820    -.74691E-02    -.19495E-01    -.10995E+03     .14448E+01     .95744E-01         .000      .000
    .830    -.58880E-02    -.21250E-01    -.12332E+03     .29859E+01     .22398E+00         .000      .000
    .840    -.29634E-02    -.21459E-01    -.12989E+03     .37569E+01     .35971E+00         .000      .000
    .850     .12414E-02    -.20064E-01    -.12819E+03     .31660E+01     .47600E+00         .000      .000
    .860     .63780E-02    -.17085E-01    -.11783E+03     .15591E+01     .53902E+00         .000      .000
    .870     .11767E-01    -.12622E-01    -.99034E+02    -.34075E+00     .52599E+00         .000      .000
    .880     .16665E-01    -.68608E-02    -.71762E+02    -.20291E+01     .44316E+00         .000      .000
    .890     .20414E-01    -.98927E-04    -.35732E+02    -.33035E+01     .29567E+00         .000      .000
    .900     .22406E-01     .72126E-02     .73270E+01    -.38211E+01     .96818E-01         .000      .000
    .910     .22285E-01     .14493E-01     .53348E+02    -.34885E+01    -.12190E+00         .000      .000
    .920     .19964E-01     .21115E-01     .98880E+02    -.28646E+01    -.34210E+00         .000      .000
    .930     .15500E-01     .26450E-01     .14024E+03    -.23163E+01    -.54535E+00         .000      .000
    .940     .92382E-02     .29918E-01     .17290E+03    -.19088E+01    -.69434E+00         .000      .000
    .950     .19464E-02     .31075E-01     .19371E+03    -.16893E+01    -.74330E+00         .000      .000
    .960    -.51943E-02     .29615E-01     .19962E+03    -.11628E+01    -.66209E+00         .000      .000
    .970    -.11005E-01     .25397E-01     .18608E+03     .52752E+00    -.49376E+00         .000      .000
    .980    -.15061E-01     .18532E-01     .14902E+03     .34617E+01    -.32326E+00         .000      .000
    .990    -.17583E-01     .95378E-02     .90371E+02     .57735E+01    -.18752E+00         .000      .000
   1.000    -.19001E-01    -.64305E-03     .22180E+02     .47089E+01    -.10908E+00         .000      .000
   1.010    -.19970E-01    -.10920E-01    -.42107E+02     .48967E+00    -.91150E-01         .000      .000
   1.020    -.20853E-01    -.20348E-01    -.97588E+02    -.33745E+01    -.80712E-01         .000      .000
   1.030    -.21460E-01    -.28182E-01    -.14302E+03    -.40249E+01    -.32433E-01         .000      .000
   1.040    -.21314E-01    -.33910E-01    -.17768E+03    -.90735E+00     .71914E-01         .000      .000
   1.050    -.19835E-01    -.37246E-01    -.20209E+03     .41847E+01     .23121E+00         .000      .000
   1.060    -.16574E-01    -.38029E-01    -.21462E+03     .78738E+01     .42418E+00         .000      .000
   1.070    -.11363E-01    -.36198E-01    -.21245E+03     .78576E+01     .61327E+00         .000      .000
   1.080    -.44706E-02    -.31819E-01    -.19501E+03     .45346E+01     .75433E+00         .000      .000
   1.090     .35347E-02    -.25085E-01    -.16408E+03     .10875E+00     .83958E+00         .000      .000
   1.100     .12225E-01    -.16323E-01    -.12138E+03    -.33416E+01     .89647E+00         .000      .000
   1.110     .21424E-01    -.60289E-02    -.68841E+02    -.46009E+01     .94171E+00         .000      .000
   1.120     .31063E-01     .50819E-02    -.11854E+02    -.32479E+01     .98816E+00         .000      .000
   1.130     .41234E-01     .16191E-01     .42498E+02    -.40165E+00     .10479E+01         .000      .000
   1.140     .52043E-01     .26549E-01     .90207E+02     .16012E+01     .11134E+01         .000      .000
   1.150     .63343E-01     .35547E-01     .12903E+03     .13099E+01     .11311E+01         .000      .000
   1.160     .74256E-01     .42764E-01     .15648E+03    -.97018E+00     .10265E+01         .000      .000
   1.170     .83369E-01     .48026E-01     .17196E+03    -.42985E+01     .77098E+00         .000      .000
   1.180     .89130E-01     .51408E-01     .18023E+03    -.81154E+01     .35223E+00         .000      .000
   1.190     .90010E-01     .53059E-01     .18712E+03    -.11300E+02    -.18685E+00         .000      .000
   1.200     .85311E-01     .53036E-01     .19431E+03    -.12408E+02    -.75006E+00         .000      .000
   1.210     .75070E-01     .51256E-01     .20131E+03    -.10838E+02    -.12950E+01         .000      .000
   1.220     .59542E-01     .47489E-01     .20331E+03    -.65576E+01    -.18011E+01         .000      .000
   1.230     .39356E-01     .41526E-01     .19503E+03    -.14167E+01    -.22157E+01         .000      .000
   1.240     .15611E-01     .33363E-01     .17882E+03     .13227E+01    -.25162E+01         .000      .000
   1.250    -.10585E-01     .23107E-01     .15751E+03     .10854E+01    -.27016E+01         .000      .000
   1.260    -.37966E-01     .10903E-01     .12741E+03     .27846E+00    -.27498E+01         .000      .000
   1.270    -.65079E-01    -.29729E-02     .85457E+02     .85445E+00    -.26469E+01         .000      .000
   1.280    -.90435E-01    -.18088E-01     .31701E+02     .34132E+01    -.24036E+01         .000      .000
   1.290    -.11280E+00    -.33885E-01    -.33101E+02     .73542E+01    -.20566E+01         .000      .000
   1.300    -.13134E+00    -.49651E-01    -.10592E+03     .10924E+02    -.16431E+01         .000      .000
   1.310    -.14555E+00    -.64512E-01    -.18024E+03     .12262E+02    -.11966E+01         .000      .000
   1.320    -.15529E+00    -.77522E-01    -.24840E+03     .10967E+02    -.75322E+00         .000      .000
   1.330    -.16066E+00    -.87794E-01    -.30477E+03     .84176E+01    -.32137E+00         .000      .000
   1.340    -.16177E+00    -.94586E-01    -.34546E+03     .63625E+01     .95071E-01         .000      .000
   1.350    -.15878E+00    -.97389E-01    -.36741E+03     .58424E+01     .50394E+00         .000      .000
   1.360    -.15162E+00    -.95981E-01    -.36971E+03     .68060E+01     .93256E+00         .000      .000
   1.370    -.14011E+00    -.90428E-01    -.35211E+03     .81225E+01     .13662E+01         .000      .000
   1.380    -.12444E+00    -.81073E-01    -.31702E+03     .89267E+01     .17574E+01         .000      .000
   1.390    -.10545E+00    -.68445E-01    -.26889E+03     .85512E+01     .20039E+01         .000      .000
   1.400    -.85270E-01    -.53111E-01    -.20931E+03     .61281E+01     .19773E+01         .000      .000
   1.410    -.66814E-01    -.35628E-01    -.13629E+03     .10426E+01     .16769E+01         .000      .000
   1.420    -.52243E-01    -.16611E-01    -.43632E+02    -.66790E+01     .12236E+01         .000      .000
   1.430    -.42493E-01     .29894E-02     .71005E+02    -.14031E+02     .72687E+00         .000      .000
   1.440    -.37603E-01     .21635E-01     .19229E+03    -.15202E+02     .26270E+00         .000      .000
   1.450    -.36829E-01     .37505E-01     .29609E+03    -.82436E+01    -.79524E-01         .000      .000
   1.460    -.38593E-01     .49050E-01     .36974E+03     .15368E+01    -.24461E+00         .000      .000
   1.470    -.41109E-01     .55196E-01     .41172E+03     .74000E+01    -.22763E+00         .000      .000
   1.480    -.42670E-01     .55339E-01     .41894E+03     .73104E+01    -.67940E-01         .000      .000
   1.490    -.42264E-01     .49432E-01     .38637E+03     .37131E+01     .15404E+00         .000      .000
   1.500    -.39603E-01     .38083E-01     .31229E+03     .30727E+00     .37296E+00         .000      .000
   1.510    -.34932E-01     .22570E-01     .20395E+03    -.12498E+01     .55377E+00         .000      .000
   1.520    -.28660E-01     .46381E-02     .76654E+02    -.13717E+01     .69478E+00         .000      .000
   1.530    -.21209E-01    -.13827E-01    -.53866E+02    -.64250E+00     .78393E+00         .000      .000
   1.540    -.13202E-01    -.31045E-01    -.17657E+03     .89562E+00     .80686E+00         .000      .000
   1.550    -.51527E-02    -.45418E-01    -.28294E+03     .26093E+01     .80522E+00         .000      .000
   1.560     .28560E-02    -.55563E-01    -.36187E+03     .29127E+01     .78923E+00         .000      .000
   1.570     .10355E-01    -.60500E-01    -.40448E+03     .17304E+01     .69061E+00         .000      .000
   1.580     .16321E-01    -.59790E-01    -.41077E+03     .58312E+00     .48825E+00         .000      .000
   1.590     .19875E-01    -.53407E-01    -.38010E+03    -.81202E+00     .21223E+00         .000      .000
   1.600     .20382E-01    -.41772E-01    -.30832E+03    -.33072E+01    -.11854E+00         .000      .000
   1.610     .17481E-01    -.25947E-01    -.20057E+03    -.53863E+01    -.45561E+00         .000      .000
   1.620     .11552E-01    -.75531E-02    -.70926E+02    -.53641E+01    -.70801E+00         .000      .000
   1.630     .37393E-02     .11489E-01     .66446E+02    -.33605E+01    -.83521E+00         .000      .000
   1.640    -.47506E-02     .29130E-01     .19578E+03    -.28276E-02    -.84226E+00         .000      .000
   1.650    -.12666E-01     .43466E-01     .30045E+03     .34212E+01    -.71818E+00         .000      .000
   1.660    -.18787E-01     .53071E-01     .37146E+03     .46882E+01    -.49685E+00         .000      .000
   1.670    -.22501E-01     .57076E-01     .40456E+03     .34461E+01    -.24466E+00         .000      .000
   1.680    -.23790E-01     .55190E-01     .39521E+03     .13902E+01    -.24634E-01         .000      .000
   1.690    -.23250E-01     .47787E-01     .34508E+03    -.39695E+00     .11891E+00         .000      .000
   1.700    -.21709E-01     .35842E-01     .26321E+03    -.17296E+01     .17340E+00         .000      .000
   1.710    -.20111E-01     .20719E-01     .16177E+03    -.25550E+01     .12943E+00         .000      .000
   1.720    -.19368E-01     .39466E-02     .52036E+02    -.25334E+01     .11471E-01         .000      .000
   1.730    -.19996E-01    -.12930E-01    -.55807E+02    -.16895E+01    -.14090E+00         .000      .000
   1.740    -.22229E-01    -.28474E-01    -.15171E+03    -.47187E+00    -.30647E+00         .000      .000
   1.750    -.26003E-01    -.41495E-01    -.22860E+03     .89986E+00    -.43566E+00         .000      .000
   1.760    -.30655E-01    -.51106E-01    -.28149E+03     .19869E+01    -.47889E+00         .000      .000
   1.770    -.35288E-01    -.56783E-01    -.30717E+03     .27145E+01    -.43406E+00         .000      .000
   1.780    -.39102E-01    -.58423E-01    -.30856E+03     .39012E+01    -.31873E+00         .000      .000
   1.790    -.41490E-01    -.56229E-01    -.29058E+03     .54316E+01    -.15218E+00         .000      .000
   1.800    -.42064E-01    -.50577E-01    -.25489E+03     .59733E+01     .38422E-01         .000      .000
   1.810    -.40700E-01    -.42018E-01    -.20286E+03     .48514E+01     .23567E+00         .000      .000
   1.820    -.37276E-01    -.31291E-01    -.13874E+03     .27003E+01     .45547E+00         .000      .000
   1.830    -.31536E-01    -.19266E-01    -.68487E+02     .74299E+00     .69200E+00         .000      .000
