


 TIME HISTORY FOR STORY NO.  1



    TIME   DISPLACEMENT    STORY DRIFT    STORY SHEAR   ACCELERATION     VELOCITY          DAMAGE    DAMAGE
                                                                                          BEAM-SLAB  COL-WALL

    .000     .00000E+00     .00000E+00     .00000E+00     .00000E+00     .00000E+00         .000      .000
    .010    -.18595E-05    -.18595E-05    -.10567E+00     .27436E-01    -.30195E-03         .000      .000
    .020    -.54575E-05    -.54575E-05    -.26374E+00     .44333E-01    -.43802E-03         .000      .000
    .030    -.10211E-04    -.10211E-04    -.43096E+00     .52169E-01    -.46234E-03         .000      .000
    .040    -.14797E-04    -.14797E-04    -.54554E+00     .53027E-01    -.49788E-03         .000      .000
    .050    -.19812E-04    -.19812E-04    -.66338E+00     .52840E-01    -.44445E-03         .000      .000
    .060    -.23502E-04    -.23502E-04    -.68889E+00     .38508E-01    -.32258E-03         .000      .000
    .070    -.26246E-04    -.26246E-04    -.67522E+00     .25049E-01    -.20263E-03         .000      .000
    .080    -.28003E-04    -.28003E-04    -.63154E+00     .16432E-01    -.20232E-03         .000      .000
    .090    -.30577E-04    -.30577E-04    -.66601E+00     .25177E-01    -.29635E-03         .000      .000
    .100    -.34774E-04    -.34774E-04    -.80251E+00     .56651E-01    -.62411E-03         .000      .000
    .110    -.42716E-04    -.42716E-04    -.11210E+01     .10256E+00    -.87991E-03         .000      .000
    .120    -.51239E-04    -.51239E-04    -.13839E+01     .11453E+00    -.79517E-03         .000      .000
    .130    -.57488E-04    -.57488E-04    -.14603E+01     .90613E-01    -.38098E-03         .000      .000
    .140    -.59391E-04    -.59391E-04    -.13020E+01     .55620E-01    -.94342E-04         .000      .000
    .150    -.59061E-04    -.59061E-04    -.10731E+01     .20355E-01     .25290E-03         .000      .000
    .160    -.54263E-04    -.54263E-04    -.64123E+00    -.40980E-01     .64469E-03         .000      .000
    .170    -.47250E-04    -.47250E-04    -.19008E+00    -.79027E-01     .71830E-03         .000      .000
    .180    -.40570E-04    -.40570E-04     .13752E+00    -.88372E-01     .59137E-03         .000      .000
    .190    -.34904E-04    -.34904E-04     .33576E+00    -.87375E-01     .60395E-03         .000      .000
    .200    -.26408E-04    -.26408E-04     .64222E+00    -.12464E+00     .12201E-02         .000      .000
    .210    -.89298E-05    -.89298E-05     .13454E+01    -.21638E+00     .23158E-02         .000      .000
    .220     .18377E-04     .18377E-04     .23697E+01    -.29674E+00     .29941E-02         .000      .000
    .230     .47594E-04     .47594E-04     .32398E+01    -.29347E+00     .26794E-02         .000      .000
    .240     .66750E-04     .66750E-04     .34410E+01    -.15905E+00     .83782E-03         .000      .000
    .250     .65669E-04     .65669E-04     .27310E+01     .38927E-02    -.73355E-03         .000      .000
    .260     .53090E-04     .53090E-04     .18467E+01     .93265E-01    -.19272E-02         .000      .000
    .270     .25776E-04     .25776E-04     .51229E+00     .23945E+00    -.35275E-02         .000      .000
    .280    -.14576E-04    -.14576E-04    -.11162E+01     .35316E+00    -.43223E-02         .000      .000
    .290    -.58472E-04    -.58472E-04    -.24867E+01     .37569E+00    -.44378E-02         .000      .000
    .300    -.10099E-03    -.10099E-03    -.34551E+01     .30973E+00    -.38876E-02         .000      .000
    .310    -.13382E-03    -.13382E-03    -.37380E+01     .13001E+00    -.26010E-02         .000      .000
    .320    -.15661E-03    -.15661E-03    -.36746E+01     .95522E-02    -.22811E-02         .000      .000
    .330    -.18618E-03    -.18618E-03    -.44240E+01     .14674E+00    -.39437E-02         .000      .000
    .340    -.23464E-03    -.23464E-03    -.63858E+01     .41782E+00    -.54756E-02         .000      .000
    .350    -.29112E-03    -.29112E-03    -.85888E+01     .61308E+00    -.56516E-02         .000      .000
    .360    -.35007E-03    -.35007E-03    -.10751E+02     .84754E+00    -.64440E-02         .000      .000
    .370    -.41253E-03    -.41253E-03    -.12859E+02     .99039E+00    -.52322E-02         .000      .000
    .380    -.44053E-03    -.44053E-03    -.12673E+02     .64972E+00     .19396E-03         .000      .000
    .390    -.40392E-03    -.40392E-03    -.91964E+01    -.38274E-01     .71404E-02         .000      .000
    .400    -.30255E-03    -.30255E-03    -.32935E+01    -.77205E+00     .12748E-01         .000      .000
    .410    -.15960E-03    -.15960E-03     .32788E+01    -.12886E+01     .15255E-01         .000      .000
    .420    -.12406E-04    -.12406E-04     .85064E+01    -.13621E+01     .13379E-01         .000      .000
    .430     .95076E-04     .95076E-04     .10579E+02    -.91447E+00     .76201E-02         .000      .000
    .440     .12900E-03     .12900E-03     .86963E+01     .35100E-02    -.14057E-02         .000      .000
    .450     .72465E-04     .72465E-04     .31974E+01     .10492E+01    -.90823E-02         .000      .000
    .460    -.43089E-04    -.43089E-04    -.31187E+01     .17824E+01    -.13871E-01         .000      .000
    .470    -.20829E-03    -.20829E-03    -.95795E+01     .23906E+01    -.19566E-01         .000      .000
    .480    -.42479E-03    -.42479E-03    -.15997E+02     .26237E+01    -.22708E-01         .000      .000
    .490    -.64462E-03    -.64462E-03    -.19671E+02     .20151E+01    -.20527E-01         .000      .000
    .500    -.83216E-03    -.83216E-03    -.20104E+02     .97515E+00    -.17136E-01         .000      .000
    .510    -.99614E-03    -.99614E-03    -.19718E+02     .18728E+00    -.16164E-01         .000      .000
    .520    -.11370E-02    -.11370E-02    -.19581E+02    -.54836E+00    -.10106E-01         .000      .000
    .530    -.11589E-02    -.11589E-02    -.15197E+02    -.20007E+01     .76196E-02         .000      .000
    .540    -.96213E-03    -.96213E-03    -.33743E+01    -.39576E+01     .32327E-01         .000      .000
    .550    -.50968E-03    -.50968E-03     .15384E+02    -.58594E+01     .58010E-01         .000      .000
    .560     .17842E-03     .17842E-03     .38748E+02    -.72184E+01     .78071E-01         .000      .000
    .570     .10219E-02     .10219E-02     .62856E+02    -.77663E+01     .89159E-01         .000      .000
    .580     .19144E-02     .19144E-02     .84093E+02    -.73388E+01     .86398E-01         .000      .000
    .590     .27057E-02     .27057E-02     .97387E+02    -.57754E+01     .70248E-01         .000      .000
    .600     .33176E-02     .33176E-02     .10266E+03    -.40594E+01     .53014E-01         .000      .000
    .610     .37701E-02     .37701E-02     .10405E+03    -.28336E+01     .37166E-01         .000      .000
    .620     .40603E-02     .40603E-02     .10243E+03    -.19576E+01     .21021E-01         .000      .000
    .630     .41716E-02     .41716E-02     .97576E+02    -.12216E+01    -.47124E-03         .000      .000
    .640     .40265E-02     .40265E-02     .85680E+02    -.15449E+00    -.29309E-01         .000      .000
    .650     .35660E-02     .35660E-02     .64360E+02     .13063E+01    -.63800E-01         .000      .000
    .660     .27252E-02     .27252E-02     .30187E+02     .37928E+01    -.10556E+00         .000      .000
    .670     .14397E-02     .14397E-02    -.20277E+02     .77794E+01    -.15177E+00         .000      .000
    .680    -.26791E-03    -.26791E-03    -.84795E+02     .12319E+02    -.18608E+00         .000      .000
    .690    -.21836E-02    -.21836E-02    -.15106E+03     .15393E+02    -.19164E+00         .000      .000
    .700    -.40087E-02    -.40087E-02    -.20547E+03     .16169E+02    -.16962E+00         .000      .000
    .710    -.55069E-02    -.55069E-02    -.24056E+03     .14843E+02    -.12695E+00         .000      .000
    .720    -.64723E-02    -.64723E-02    -.25071E+03     .11077E+02    -.62107E-01         .000      .000
    .730    -.66978E-02    -.66978E-02    -.23078E+03     .49753E+01     .18482E-01         .000      .000
    .740    -.61496E-02    -.61496E-02    -.18640E+03    -.90430E+00     .86515E-01         .000      .000
    .750    -.50656E-02    -.50656E-02    -.13503E+03    -.38137E+01     .12565E+00         .000      .000
    .760    -.36786E-02    -.36786E-02    -.86716E+02    -.43155E+01     .15141E+00         .000      .000
    .770    -.20446E-02    -.20446E-02    -.38489E+02    -.41184E+01     .17479E+00         .000      .000
    .780    -.20233E-03    -.20233E-03     .12567E+02    -.37210E+01     .19224E+00         .000      .000
    .790     .17885E-02     .17885E-02     .68402E+02    -.39771E+01     .20562E+00         .000      .000
    .800     .39158E-02     .39158E-02     .13374E+03    -.63581E+01     .22016E+00         .000      .000
    .810     .61452E-02     .61452E-02     .20976E+03    -.10701E+02     .22148E+00         .000      .000
    .820     .82384E-02     .82384E-02     .28424E+03    -.14958E+02     .19140E+00         .000      .000
    .830     .98745E-02     .98745E-02     .34135E+03    -.17824E+02     .13195E+00         .000      .000
    .840     .10799E-01     .10799E-01     .36926E+03    -.18308E+02     .49702E-01         .000      .000
    .850     .10836E-01     .10836E-01     .35978E+03    -.15788E+02    -.42489E-01         .000      .000
    .860     .99410E-02     .99410E-02     .31243E+03    -.10340E+02    -.13697E+00         .000      .000
    .870     .81306E-02     .81306E-02     .23001E+03    -.26418E+01    -.22189E+00         .000      .000
    .880     .55944E-02     .55944E-02     .12576E+03     .48740E+01    -.28034E+00         .000      .000
    .890     .25873E-02     .25873E-02     .13738E+02     .11250E+02    -.31950E+00         .000      .000
    .900    -.73845E-03    -.73845E-03    -.10022E+03     .16418E+02    -.34204E+00         .000      .000
    .910    -.41784E-02    -.41784E-02    -.20802E+03     .19511E+02    -.34224E+00         .000      .000
    .920    -.75322E-02    -.75322E-02    -.30469E+03     .21187E+02    -.32662E+00         .000      .000
    .930    -.10632E-01    -.10632E-01    -.38820E+03     .21767E+02    -.28777E+00         .000      .000
    .940    -.13141E-01    -.13141E-01    -.44686E+03     .19657E+02    -.20569E+00         .000      .000
    .950    -.14557E-01    -.14557E-01    -.46231E+03     .13336E+02    -.67662E-01         .000      .000
    .960    -.14355E-01    -.14355E-01    -.41845E+03     .29922E+01     .11261E+00         .000      .000
    .970    -.12411E-01    -.12411E-01    -.32213E+03    -.62388E+01     .26447E+00         .000      .000
    .980    -.93389E-02    -.93389E-02    -.21186E+03    -.84497E+01     .33554E+00         .000      .000
    .990    -.58761E-02    -.58761E-02    -.11426E+03    -.54860E+01     .35174E+00         .000      .000
   1.000    -.23989E-02    -.23989E-02    -.28835E+02    -.15446E+01     .33894E+00         .000      .000
   1.010     .91500E-03     .91500E-03     .50655E+02     .50392E+00     .32794E+00         .000      .000
   1.020     .42660E-02     .42660E-02     .14486E+03    -.29377E+01     .34781E+00         .000      .000
   1.030     .78724E-02     .78724E-02     .26573E+03    -.10798E+02     .36953E+00         .000      .000
   1.040     .11516E-01     .11516E-01     .39822E+03    -.19313E+02     .35017E+00         .000      .000
   1.050     .14652E-01     .14652E-01     .51462E+03    -.25840E+02     .26475E+00         .000      .000
   1.060     .16611E-01     .16611E-01     .58396E+03    -.28488E+02     .11977E+00         .000      .000
   1.070     .16955E-01     .16955E-01     .58738E+03    -.26610E+02    -.52620E-01         .000      .000
   1.080     .15599E-01     .15599E-01     .52180E+03    -.20282E+02    -.21314E+00         .000      .000
   1.090     .12899E-01     .12899E-01     .40552E+03    -.12310E+02    -.31329E+00         .000      .000
   1.100     .96119E-02     .96119E-02     .27617E+03    -.67990E+01    -.33115E+00         .000      .000
   1.110     .64420E-02     .64420E-02     .16332E+03    -.45030E+01    -.29869E+00         .000      .000
   1.120     .36832E-02     .36832E-02     .72951E+02    -.40359E+01    -.25247E+00         .000      .000
   1.130     .13603E-02     .13603E-02    -.53094E+00    -.40274E+01    -.21511E+00         .000      .000
   1.140    -.66823E-03    -.66823E-03    -.70004E+02    -.26335E+01    -.19209E+00         .000      .000
   1.150    -.25761E-02    -.25761E-02    -.14854E+03     .27179E+01    -.19566E+00         .000      .000
   1.160    -.46613E-02    -.46613E-02    -.25262E+03     .14197E+02    -.22324E+00         .000      .000
   1.170    -.69945E-02    -.69945E-02    -.37812E+03     .28770E+02    -.23868E+00         .000      .000
   1.180    -.93743E-02    -.93743E-02    -.50357E+03     .42888E+02    -.23637E+00         .000      .000
   1.190    -.11577E-01    -.11577E-01    -.60768E+03     .52337E+02    -.19373E+00         .000      .000
   1.200    -.13094E-01    -.13094E-01    -.65696E+03     .52419E+02    -.10484E+00         .000      .000
   1.210    -.13739E-01    -.13739E-01    -.64741E+03     .46976E+02    -.32820E-01         .000      .000
   1.220    -.13914E-01    -.13914E-01    -.60851E+03     .41251E+02    -.92905E-02         .000      .000
   1.230    -.13978E-01    -.13978E-01    -.55966E+03     .34790E+02    -.27794E-02         .000      .000
   1.240    -.13971E-01    -.13971E-01    -.50334E+03     .27187E+02     .41087E-02         .000      .000
   1.250    -.13805E-01    -.13805E-01    -.44084E+03     .18924E+02     .37231E-01         .000      .000
   1.260    -.13055E-01    -.13055E-01    -.35655E+03     .84123E+01     .12148E+00         .000      .000
   1.270    -.11250E-01    -.11250E-01    -.23565E+03    -.39610E+01     .24377E+00         .000      .000
   1.280    -.81901E-02    -.81901E-02    -.75997E+02    -.16551E+02     .36383E+00         .000      .000
   1.290    -.41335E-02    -.41335E-02     .10627E+03    -.27048E+02     .43685E+00         .000      .000
   1.300     .34106E-03     .34106E-03     .28595E+03    -.34313E+02     .44827E+00         .000      .000
   1.310     .46651E-02     .46651E-02     .44344E+03    -.38569E+02     .40966E+00         .000      .000
   1.320     .84295E-02     .84295E-02     .56741E+03    -.40119E+02     .33957E+00         .000      .000
   1.330     .11465E-01     .11465E-01     .65788E+03    -.40676E+02     .27091E+00         .000      .000
   1.340     .13850E-01     .13850E-01     .72506E+03    -.41319E+02     .20362E+00         .000      .000
   1.350     .15544E-01     .15544E-01     .76962E+03    -.42096E+02     .13721E+00         .000      .000
   1.360     .16596E-01     .16596E-01     .79722E+03    -.44422E+02     .71659E-01         .000      .000
   1.370     .16876E-01     .16876E-01     .79918E+03    -.45599E+02    -.22462E-01         .000      .000
   1.380     .16000E-01     .16000E-01     .75158E+03    -.41777E+02    -.15935E+00         .000      .000
   1.390     .13455E-01     .13455E-01     .62684E+03    -.28481E+02    -.36362E+00         .000      .000
   1.400     .85182E-02     .85182E-02     .39247E+03    -.25844E+01    -.63076E+00         .000      .000
   1.410     .10443E-02     .10443E-02     .59755E+02     .27113E+02    -.84284E+00         .000      .000
   1.420    -.77729E-02    -.77729E-02    -.29119E+03     .46326E+02    -.88959E+00         .000      .000
   1.430    -.16234E-01    -.16234E-01    -.58018E+03     .51127E+02    -.78202E+00         .000      .000
   1.440    -.23170E-01    -.23170E-01    -.77570E+03     .46705E+02    -.59898E+00         .000      .000
   1.450    -.28137E-01    -.28137E-01    -.88373E+03     .37925E+02    -.39242E+00         .000      .000
   1.460    -.31065E-01    -.31065E-01    -.91911E+03     .27458E+02    -.19835E+00         .000      .000
   1.470    -.32116E-01    -.32116E-01    -.90302E+03     .16851E+02    -.84772E-02         .000      .000
   1.480    -.31211E-01    -.31211E-01    -.84087E+03     .69930E+01     .18991E+00         .000      .000
   1.490    -.28301E-01    -.28301E-01    -.74158E+03     .15270E+01     .39393E+00         .000      .000
   1.500    -.23321E-01    -.23321E-01    -.60368E+03     .45923E+00     .60099E+00         .000      .000
   1.510    -.16324E-01    -.16324E-01    -.41801E+03     .53080E+00     .79393E+00         .000      .000
   1.520    -.75859E-02    -.75859E-02    -.17715E+03    -.24483E+01     .94292E+00         .000      .000
   1.530     .21899E-02     .21899E-02     .10465E+03    -.81536E+01     .99012E+00         .000      .000
   1.540     .11773E-01     .11773E-01     .38292E+03    -.12942E+02     .90526E+00         .000      .000
   1.550     .20017E-01     .20017E-01     .61992E+03    -.17320E+02     .73561E+00         .000      .000
   1.560     .26247E-01     .26247E-01     .79787E+03    -.20757E+02     .49659E+00         .000      .000
   1.570     .29668E-01     .29668E-01     .88218E+03    -.17677E+02     .17496E+00         .000      .000
   1.580     .29667E-01     .29667E-01     .85013E+03    -.85842E+01    -.17245E+00         .000      .000
   1.590     .26346E-01     .26346E-01     .71789E+03     .15729E+01    -.48282E+00         .000      .000
   1.600     .20219E-01     .20219E-01     .51199E+03     .10617E+02    -.73124E+00         .000      .000
   1.610     .12043E-01     .12043E-01     .26230E+03     .16209E+02    -.88491E+00         .000      .000
   1.620     .29300E-02     .29300E-02     .89545E+01     .15659E+02    -.91662E+00         .000      .000
   1.630    -.60121E-02    -.60121E-02    -.21875E+03     .11531E+02    -.86280E+00         .000      .000
   1.640    -.14145E-01    -.14145E-01    -.41924E+03     .82549E+01    -.75423E+00         .000      .000
   1.650    -.20876E-01    -.20876E-01    -.58376E+03     .52384E+01    -.58015E+00         .000      .000
   1.660    -.25606E-01    -.25606E-01    -.69872E+03     .32152E+01    -.36200E+00         .000      .000
   1.670    -.28028E-01    -.28028E-01    -.76245E+03     .39483E+01    -.11787E+00         .000      .000
   1.680    -.27951E-01    -.27951E-01    -.76866E+03     .70574E+01     .13047E+00         .000      .000
   1.690    -.25468E-01    -.25468E-01    -.71681E+03     .11649E+02     .36316E+00         .000      .000
   1.700    -.20797E-01    -.20797E-01    -.60253E+03     .14755E+02     .56253E+00         .000      .000
   1.710    -.14444E-01    -.14444E-01    -.43296E+03     .15579E+02     .69387E+00         .000      .000
   1.720    -.71654E-02    -.71654E-02    -.22669E+03     .13462E+02     .75068E+00         .000      .000
   1.730     .30868E-03     .30868E-03    -.19900E+01     .82732E+01     .73015E+00         .000      .000
   1.740     .71649E-02     .71649E-02     .21304E+03     .23460E+01     .62855E+00         .000      .000
   1.750     .12753E-01     .12753E-01     .39686E+03    -.47935E+01     .48750E+00         .000      .000
   1.760     .16877E-01     .16877E-01     .54695E+03    -.14148E+02     .33560E+00         .000      .000
   1.770     .19416E-01     .19416E-01     .65397E+03    -.22786E+02     .17035E+00         .000      .000
   1.780     .20249E-01     .20249E-01     .70478E+03    -.28094E+02    -.46495E-02         .000      .000
   1.790     .19338E-01     .19338E-01     .69215E+03    -.29279E+02    -.17515E+00         .000      .000
   1.800     .16811E-01     .16811E-01     .61858E+03    -.26788E+02    -.32612E+00         .000      .000
   1.810     .12975E-01     .12975E-01     .49581E+03    -.22427E+02    -.43049E+00         .000      .000
   1.820     .84684E-02     .84684E-02     .35117E+03    -.19514E+02    -.45607E+00         .000      .000
   1.830     .40430E-02     .40430E-02     .21165E+03    -.17825E+02    -.42347E+00         .000      .000
