


 TIME HISTORY FOR STORY NO.  6



    TIME   DISPLACEMENT    STORY DRIFT    STORY SHEAR   ACCELERATION     VELOCITY          DAMAGE    DAMAGE
                                                                                          BEAM-SLAB  COL-WALL

    .000     .00000E+00     .00000E+00     .00000E+00     .00000E+00     .00000E+00         .000      .000
    .010    -.13304E-05    -.75499E-09    -.12231E-04     .15583E-04    -.11614E-04         .000      .000
    .020    -.24355E-06    -.29553E-08    -.14602E-02     .44560E-03    -.45669E-04         .000      .000
    .030    -.22093E-05     .11475E-06    -.48243E-03    -.24705E-03    -.71221E-04         .000      .000
    .040    -.17917E-05     .26081E-06     .65288E-02    -.13348E-02    -.13134E-03         .000      .000
    .050    -.50051E-05     .17467E-06     .45339E-02    -.59299E-03    -.24373E-03         .000      .000
    .060    -.68727E-05     .29614E-07     .27464E-02    -.23439E-03    -.41710E-03         .000      .000
    .070    -.13405E-04    -.53105E-07     .18085E-02    -.21660E-03    -.60926E-03         .000      .000
    .080    -.19192E-04     .15940E-07     .66909E-02    -.12182E-02    -.84010E-03         .000      .000
    .090    -.30351E-04     .18689E-06     .14854E-01    -.31300E-02    -.11157E-02         .000      .000
    .100    -.41780E-04     .33118E-06     .33292E-01    -.68169E-02    -.14719E-02         .000      .000
    .110    -.60014E-04    -.21893E-07     .52880E-01    -.10447E-01    -.18966E-02         .000      .000
    .120    -.80016E-04    -.13143E-05     .72853E-01    -.13776E-01    -.24108E-02         .000      .000
    .130    -.10839E-03    -.39538E-05     .86094E-01    -.15907E-01    -.29748E-02         .000      .000
    .140    -.13961E-03    -.81204E-05     .98671E-01    -.17879E-01    -.35665E-02         .000      .000
    .150    -.17830E-03    -.14028E-04     .10688E+00    -.19403E-01    -.37344E-02         .000      .000
    .160    -.21388E-03    -.21794E-04     .11845E+00    -.21767E-01    -.37770E-02         .000      .000
    .170    -.25663E-03    -.31812E-04     .13458E+00    -.24994E-01    -.46559E-02         .000      .000
    .180    -.30965E-03    -.45108E-04     .14330E+00    -.23793E-01    -.63217E-02         .000      .000
    .190    -.38384E-03    -.62584E-04     .77915E-01    -.55479E-02    -.82199E-02         .000      .000
    .200    -.47354E-03    -.81665E-04    -.48196E-01     .19799E-01    -.99733E-02         .000      .000
    .210    -.58152E-03    -.97190E-04    -.11071E+00     .24582E-01    -.11203E-01         .000      .000
    .220    -.69599E-03    -.10687E-03    -.66275E-02    -.41969E-02    -.11950E-01         .000      .000
    .230    -.82130E-03    -.11456E-03     .22148E+00    -.51551E-01    -.12923E-01         .000      .000
    .240    -.95630E-03    -.12790E-03     .46246E+00    -.93782E-01    -.14438E-01         .000      .000
    .250    -.11110E-02    -.15438E-03     .58335E+00    -.10682E+00    -.16227E-01         .000      .000
    .260    -.12783E-02    -.19700E-03     .52033E+00    -.84424E-01    -.17255E-01         .000      .000
    .270    -.14484E-02    -.25283E-03     .31921E+00    -.42638E-01    -.15975E-01         .000      .000
    .280    -.15912E-02    -.31561E-03     .11324E+00    -.80961E-02    -.12716E-01         .000      .000
    .290    -.17010E-02    -.38131E-03    -.87875E-02     .84061E-02    -.89427E-02         .000      .000
    .300    -.17714E-02    -.45136E-03    -.11289E+00     .31353E-01    -.55741E-02         .000      .000
    .310    -.18181E-02    -.52869E-03    -.41753E+00     .10429E+00    -.38822E-02         .000      .000
    .320    -.18538E-02    -.60817E-03    -.10087E+01     .23039E+00    -.35984E-02         .000      .000
    .330    -.18865E-02    -.67387E-03    -.17383E+01     .36893E+00    -.22671E-02         .000      .000
    .340    -.18871E-02    -.70450E-03    -.23031E+01     .45560E+00     .26514E-02         .000      .000
    .350    -.18119E-02    -.68349E-03    -.23600E+01     .42533E+00     .13998E-01         .000      .000
    .360    -.15876E-02    -.61124E-03    -.17291E+01     .26207E+00     .31187E-01         .000      .000
    .370    -.11983E-02    -.51182E-03    -.64703E+00     .39333E-01     .45372E-01         .000      .000
    .380    -.72515E-03    -.42540E-03     .22606E+00    -.89952E-01     .46148E-01         .000      .000
    .390    -.32215E-03    -.38479E-03    -.52765E-01     .55895E-01     .32960E-01         .000      .000
    .400    -.76173E-04    -.37735E-03    -.19401E+01     .49988E+00     .16666E-01         .000      .000
    .410     .43735E-04    -.32531E-03    -.43669E+01     .93534E+00     .99697E-02         .000      .000
    .420     .15192E-03    -.13003E-03    -.49910E+01     .89233E+00     .11736E-01         .000      .000
    .430     .27348E-03     .23643E-03    -.22482E+01     .18408E+00     .12035E-01         .000      .000
    .440     .35752E-03     .68048E-03     .28657E+01    -.84306E+00     .20109E-02         .000      .000
    .450     .25888E-03     .10400E-02     .74587E+01    -.16000E+01    -.24264E-01         .000      .000
    .460    -.16522E-03     .11939E-02     .93605E+01    -.17742E+01    -.61735E-01         .000      .000
    .470    -.96821E-03     .11232E-02     .84463E+01    -.14589E+01    -.97013E-01         .000      .000
    .480    -.20673E-02     .89482E-03     .61983E+01    -.10038E+01    -.12100E+00         .000      .000
    .490    -.33441E-02     .59995E-03     .46596E+01    -.79454E+00    -.13190E+00         .000      .000
    .500    -.46619E-02     .28122E-03     .50189E+01    -.96982E+00    -.12975E+00         .000      .000
    .510    -.59193E-02    -.99723E-04     .66357E+01    -.13086E+01    -.12153E+00         .000      .000
    .520    -.71106E-02    -.62707E-03     .77435E+01    -.14426E+01    -.11861E+00         .000      .000
    .530    -.83212E-02    -.13685E-02     .65634E+01    -.10501E+01    -.12449E+00         .000      .000
    .540    -.96101E-02    -.23182E-02     .19949E+01     .14321E-01    -.13330E+00         .000      .000
    .550    -.10948E-01    -.33584E-02    -.53630E+01     .15080E+01    -.13069E+00         .000      .000
    .560    -.12130E-01    -.42819E-02    -.12785E+02     .28135E+01    -.10032E+00         .000      .000
    .570    -.12864E-01    -.48911E-02    -.16960E+02     .33313E+01    -.42911E-01         .000      .000
    .580    -.12970E-01    -.51091E-02    -.16223E+02     .28991E+01     .20065E-01         .000      .000
    .590    -.12519E-01    -.50251E-02    -.12060E+02     .19938E+01     .66484E-01         .000      .000
    .600    -.11753E-01    -.48218E-02    -.84800E+01     .14555E+01     .79424E-01         .000      .000
    .610    -.11056E-01    -.46186E-02    -.87853E+01     .17705E+01     .54722E-01         .000      .000
    .620    -.10728E-01    -.43635E-02    -.12677E+02     .26565E+01     .90186E-02         .000      .000
    .630    -.10883E-01    -.38653E-02    -.16576E+02     .32888E+01    -.39084E-01         .000      .000
    .640    -.11481E-01    -.29261E-02    -.15611E+02     .27331E+01    -.78833E-01         .000      .000
    .650    -.12406E-01    -.15090E-02    -.64551E+01     .52477E+00    -.10251E+00         .000      .000
    .660    -.13502E-01     .15714E-03     .10072E+02    -.29189E+01    -.11728E+00         .000      .000
    .670    -.14679E-01     .16180E-02     .29108E+02    -.65075E+01    -.10984E+00         .000      .000
    .680    -.15588E-01     .23519E-02     .43974E+02    -.89462E+01    -.68573E-01         .000      .000
    .690    -.16083E-01     .19671E-02     .49146E+02    -.93176E+01    -.36888E-01         .000      .000
    .700    -.16467E-01     .33131E-03     .42209E+02    -.72873E+01    -.47543E-01         .000      .000
    .710    -.17078E-01    -.23917E-02     .22100E+02    -.27189E+01    -.71446E-01         .000      .000
    .720    -.17781E-01    -.56684E-02    -.89971E+01     .35968E+01    -.61469E-01         .000      .000
    .730    -.18164E-01    -.86200E-02    -.40462E+02     .91646E+01    -.98238E-02         .000      .000
    .740    -.17889E-01    -.10409E-01    -.58170E+02     .11472E+02     .67887E-01         .000      .000
    .750    -.16761E-01    -.10720E-01    -.57194E+02     .10318E+02     .15977E+00         .000      .000
    .760    -.14611E-01    -.98080E-02    -.44182E+02     .73932E+01     .27692E+00         .000      .000
    .770    -.11140E-01    -.81728E-02    -.28157E+02     .42966E+01     .41900E+00         .000      .000
    .780    -.63023E-02    -.62768E-02    -.14342E+02     .18302E+01     .53993E+00         .000      .000
    .790    -.57567E-03    -.44742E-02    -.61787E+01     .69124E+00     .59106E+00         .000      .000
    .800     .52969E-02    -.29476E-02    -.79664E+01     .16879E+01     .57582E+00         .000      .000
    .810     .10901E-01    -.15256E-02    -.20229E+02     .44660E+01     .54820E+00         .000      .000
    .820     .16366E-01     .35824E-03    -.33566E+02     .66561E+01     .55096E+00         .000      .000
    .830     .21993E-01     .32937E-02    -.32996E+02     .54432E+01     .57491E+00         .000      .000
    .840     .27716E-01     .73375E-02    -.11301E+02     .24147E+00     .55487E+00         .000      .000
    .850     .32744E-01     .11823E-01     .23562E+02    -.66302E+01     .43190E+00         .000      .000
    .860     .36004E-01     .15735E-01     .54938E+02    -.11870E+02     .20509E+00         .000      .000
    .870     .36640E-01     .18321E-01     .70559E+02    -.13726E+02    -.83023E-01         .000      .000
    .880     .34349E-01     .19427E-01     .70714E+02    -.12988E+02    -.37025E+00         .000      .000
    .890     .29427E-01     .19352E-01     .64904E+02    -.11753E+02    -.60075E+00         .000      .000
    .900     .22640E-01     .18442E-01     .62693E+02    -.11645E+02    -.73971E+00         .000      .000
    .910     .15018E-01     .16776E-01     .67743E+02    -.12977E+02    -.76308E+00         .000      .000
    .920     .77659E-02     .14088E-01     .76624E+02    -.14727E+02    -.66991E+00         .000      .000
    .930     .17982E-02     .98975E-02     .80425E+02    -.14944E+02    -.52257E+00         .000      .000
    .940    -.29334E-02     .37935E-02     .67873E+02    -.11385E+02    -.44874E+00         .000      .000
    .950    -.76400E-02    -.42057E-02     .28881E+02    -.22953E+01    -.51338E+00         .000      .000
    .960    -.13328E-01    -.13273E-01    -.39205E+02     .12117E+02    -.61674E+00         .000      .000
    .970    -.19386E-01    -.21584E-01    -.12154E+03     .27721E+02    -.54580E+00         .000      .000
    .980    -.23241E-01    -.26776E-01    -.18305E+03     .36985E+02    -.17709E+00         .000      .000
    .990    -.22230E-01    -.27214E-01    -.18822E+03     .34055E+02     .39977E+00         .000      .000
   1.000    -.15375E-01    -.23220E-01    -.13262E+03     .20567E+02     .94024E+00         .000      .000
   1.010    -.43927E-02    -.17042E-01    -.53806E+02     .56788E+01     .11945E+01         .000      .000
   1.020     .74058E-02    -.11306E-01    -.45423E+01    -.86430E+00     .11187E+01         .000      .000
   1.030     .17464E-01    -.71610E-02    -.12437E+02     .38588E+01     .88707E+00         .000      .000
   1.040     .25298E-01    -.35601E-02    -.58999E+02     .13716E+02     .69738E+00         .000      .000
   1.050     .31710E-01     .17703E-02    -.93096E+02     .18102E+02     .59368E+00         .000      .000
   1.060     .37242E-01     .10378E-01    -.70630E+02     .10192E+02     .51012E+00         .000      .000
   1.070     .41758E-01     .21707E-01     .12596E+02    -.82846E+01     .38226E+00         .000      .000
   1.080     .44516E-01     .33311E-01     .12408E+03    -.29788E+02     .14594E+00         .000      .000
   1.090     .44158E-01     .42129E-01     .22269E+03    -.46700E+02    -.24377E+00         .000      .000
   1.100     .39192E-01     .45698E-01     .27738E+03    -.53840E+02    -.76673E+00         .000      .000
   1.110     .28735E-01     .42901E-01     .27169E+03    -.49067E+02    -.13159E+01         .000      .000
   1.120     .13333E-01     .34340E-01     .21021E+03    -.34692E+02    -.17290E+01         .000      .000
   1.130    -.50380E-02     .22076E-01     .12136E+03    -.17269E+02    -.19029E+01         .000      .000
   1.140    -.24050E-01     .85908E-02     .42740E+02    -.37596E+01    -.18765E+01         .000      .000
   1.150    -.42307E-01    -.44608E-02    -.41978E+01     .32957E+01    -.17716E+01         .000      .000
   1.160    -.59462E-01    -.16731E-01    -.27659E+02     .70297E+01    -.16590E+01         .000      .000
   1.170    -.75419E-01    -.28557E-01    -.52772E+02     .12433E+02    -.15246E+01         .000      .000
   1.180    -.89670E-01    -.39912E-01    -.95292E+02     .21397E+02    -.13051E+01         .000      .000
   1.190    -.10103E+00    -.49953E-01    -.14963E+03     .31781E+02    -.94079E+00         .000      .000
   1.200    -.10789E+00    -.57392E-01    -.19874E+03     .40123E+02    -.39819E+00         .000      .000
   1.210    -.10846E+00    -.61118E-01    -.22798E+03     .44019E+02     .30441E+00         .000      .000
   1.220    -.10156E+00    -.60603E-01    -.23072E+03     .42713E+02     .10786E+01         .000      .000
   1.230    -.86964E-01    -.56028E-01    -.20913E+03     .37173E+02     .18313E+01         .000      .000
   1.240    -.65313E-01    -.48169E-01    -.17442E+03     .30007E+02     .24714E+01         .000      .000
   1.250    -.38223E-01    -.37976E-01    -.14121E+03     .23930E+02     .29065E+01         .000      .000
   1.260    -.79653E-02    -.26096E-01    -.11764E+03     .19972E+02     .31074E+01         .000      .000
   1.270     .23432E-01    -.12661E-01    -.10160E+03     .17119E+02     .31598E+01         .000      .000
   1.280     .55151E-01     .25886E-02    -.81089E+02     .12520E+02     .31871E+01         .000      .000
   1.290     .87187E-01     .19860E-01    -.37530E+02     .24991E+01     .32170E+01         .000      .000
   1.300     .11922E+00     .38584E-01     .41185E+02    -.14318E+02     .31673E+01         .000      .000
   1.310     .14978E+00     .56943E-01     .14335E+03    -.34091E+02     .28957E+01         .000      .000
   1.320     .17596E+00     .72331E-01     .23448E+03    -.49454E+02     .22746E+01         .000      .000
   1.330     .19442E+00     .82605E-01     .28057E+03    -.54748E+02     .13979E+01         .000      .000
   1.340     .20399E+00     .87159E-01     .27123E+03    -.49806E+02     .54029E+00         .000      .000
   1.350     .20580E+00     .87090E-01     .22822E+03    -.40538E+02    -.14680E+00         .000      .000
   1.360     .20153E+00     .84207E-01     .19238E+03    -.34859E+02    -.69184E+00         .000      .000
   1.370     .19211E+00     .79473E-01     .18659E+03    -.35111E+02    -.11926E+01         .000      .000
   1.380     .17763E+00     .72431E-01     .19484E+03    -.36356E+02    -.17066E+01         .000      .000
   1.390     .15804E+00     .62160E-01     .18537E+03    -.32735E+02    -.22027E+01         .000      .000
   1.400     .13399E+00     .48485E-01     .14287E+03    -.22722E+02    -.25750E+01         .000      .000
   1.410     .10727E+00     .32309E-01     .74254E+02    -.86191E+01    -.27279E+01         .000      .000
   1.420     .80148E-01     .15194E-01    -.35867E+01     .61639E+01    -.26675E+01         .000      .000
   1.430     .54445E-01    -.12322E-02    -.75147E+02     .19008E+02    -.24509E+01         .000      .000
   1.440     .31551E-01    -.15675E-01    -.13287E+03     .28992E+02    -.21082E+01         .000      .000
   1.450     .12644E-01    -.27239E-01    -.17600E+03     .36164E+02    -.16567E+01         .000      .000
   1.460    -.12840E-02    -.35297E-01    -.20336E+03     .40158E+02    -.11158E+01         .000      .000
   1.470    -.94868E-02    -.39513E-01    -.21248E+03     .40601E+02    -.51922E+00         .000      .000
   1.480    -.11708E-01    -.39945E-01    -.20511E+03     .38177E+02     .66021E-01         .000      .000
   1.490    -.84929E-02    -.36964E-01    -.18744E+03     .34223E+02     .55384E+00         .000      .000
   1.500    -.10643E-02    -.31023E-01    -.16523E+03     .29699E+02     .91195E+00         .000      .000
   1.510     .94595E-02    -.22473E-01    -.14010E+03     .24598E+02     .11840E+01         .000      .000
   1.520     .22421E-01    -.11537E-01    -.10738E+03     .17641E+02     .13971E+01         .000      .000
   1.530     .37068E-01     .14615E-02    -.57888E+02     .70642E+01     .15100E+01         .000      .000
   1.540     .52001E-01     .15678E-01     .11501E+02    -.70005E+01     .14378E+01         .000      .000
   1.550     .64989E-01     .29611E-01     .88969E+02    -.21487E+02     .11168E+01         .000      .000
   1.560     .73589E-01     .41566E-01     .15481E+03    -.32652E+02     .57273E+00         .000      .000
   1.570     .76072E-01     .50332E-01     .19699E+03    -.39019E+02    -.82770E-01         .000      .000
   1.580     .71987E-01     .55457E-01     .21869E+03    -.42037E+02    -.72327E+00         .000      .000
   1.590     .61808E-01     .56955E-01     .23205E+03    -.44185E+02    -.13043E+01         .000      .000
   1.600     .46031E-01     .54755E-01     .24480E+03    -.46336E+02    -.18462E+01         .000      .000
   1.610     .25156E-01     .48436E-01     .25109E+03    -.46613E+02    -.23054E+01         .000      .000
   1.620     .47141E-03     .37531E-01     .23592E+03    -.42073E+02    -.25992E+01         .000      .000
   1.630    -.26253E-01     .22116E-01     .19050E+03    -.31763E+02    -.27209E+01         .000      .000
   1.640    -.53440E-01     .30117E-02     .11869E+03    -.16882E+02    -.26914E+01         .000      .000
   1.650    -.79579E-01    -.18459E-01     .26019E+02     .17193E+01    -.25116E+01         .000      .000
   1.660    -.10312E+00    -.40563E-01    -.84098E+02     .23246E+02    -.21655E+01         .000      .000
   1.670    -.12228E+00    -.61055E-01    -.19946E+03     .44661E+02    -.16381E+01         .000      .000
   1.680    -.13540E+00    -.77492E-01    -.29763E+03     .61440E+02    -.96907E+00         .000      .000
   1.690    -.14142E+00    -.87926E-01    -.35920E+03     .70494E+02    -.22937E+00         .000      .000
   1.700    -.13991E+00    -.91410E-01    -.37869E+03     .71640E+02     .53233E+00         .000      .000
   1.710    -.13075E+00    -.87954E-01    -.36225E+03     .66431E+02     .13010E+01         .000      .000
   1.720    -.11387E+00    -.78198E-01    -.31768E+03     .56230E+02     .20763E+01         .000      .000
   1.730    -.89435E-01    -.63199E-01    -.25028E+03     .42012E+02     .27903E+01         .000      .000
   1.740    -.58655E-01    -.44411E-01    -.16718E+03     .25440E+02     .33295E+01         .000      .000
   1.750    -.23519E-01    -.23574E-01    -.81483E+02     .93346E+01     .36678E+01         .000      .000
   1.760     .14090E-01    -.23175E-02    -.77248E+01    -.38036E+01     .38235E+01         .000      .000
   1.770     .52261E-01     .18286E-01     .50790E+02    -.14210E+02     .37719E+01         .000      .000
   1.780     .88821E-01     .37651E-01     .10328E+03    -.23963E+02     .35077E+01         .000      .000
   1.790     .12177E+00     .55186E-01     .15570E+03    -.33641E+02     .30508E+01         .000      .000
   1.800     .14919E+00     .70112E-01     .20445E+03    -.42252E+02     .24002E+01         .000      .000
   1.810     .16928E+00     .81671E-01     .24549E+03    -.49204E+02     .15998E+01         .000      .000
   1.820     .18098E+00     .89219E-01     .27653E+03    -.54082E+02     .73833E+00         .000      .000
   1.830     .18406E+00     .92247E-01     .29431E+03    -.56280E+02    -.11872E+00         .000      .000
