


 TIME HISTORY FOR STORY NO.  3



    TIME   DISPLACEMENT    STORY DRIFT    STORY SHEAR   ACCELERATION     VELOCITY          DAMAGE    DAMAGE
                                                                                          BEAM-SLAB  COL-WALL

    .000     .00000E+00     .00000E+00     .00000E+00     .00000E+00     .00000E+00         .000      .000
    .010    -.13550E-05     .27383E-07     .10288E-01    -.22584E-02    -.21312E-04         .000      .000
    .020    -.38773E-06    -.40150E-06    -.78034E-02     .51641E-02    -.46414E-04         .000      .000
    .030    -.21972E-05    -.42069E-06    -.27961E-02    -.30443E-02    -.53888E-04         .000      .000
    .040    -.17044E-05    -.64482E-06     .13381E-02     .24763E-02    -.12050E-03         .000      .000
    .050    -.46400E-05    -.93363E-06     .21677E-02    -.21730E-02    -.21000E-03         .000      .000
    .060    -.62190E-05    -.16299E-05     .34695E-02     .40497E-02    -.38139E-03         .000      .000
    .070    -.12191E-04    -.26414E-05     .79494E-02     .14101E-03    -.54147E-03         .000      .000
    .080    -.17189E-04    -.46123E-05     .13044E-03     .89831E-02    -.73182E-03         .000      .000
    .090    -.26703E-04    -.73175E-05    -.15504E-01     .66435E-02    -.89766E-03         .000      .000
    .100    -.35325E-04    -.11054E-04    -.38922E-01     .15412E-01    -.11056E-02         .000      .000
    .110    -.48700E-04    -.15475E-04    -.62571E-01     .13003E-01    -.12912E-02         .000      .000
    .120    -.61318E-04    -.20932E-04    -.91933E-01     .23032E-01    -.15150E-02         .000      .000
    .130    -.78812E-04    -.27084E-04    -.11894E+00     .21737E-01    -.16952E-02         .000      .000
    .140    -.95205E-04    -.34328E-04    -.14993E+00     .32591E-01    -.18575E-02         .000      .000
    .150    -.11420E-03    -.42387E-04    -.18810E+00     .33119E-01    -.15037E-02         .000      .000
    .160    -.12460E-03    -.51265E-04    -.27818E+00     .48809E-01    -.93642E-03         .000      .000
    .170    -.13549E-03    -.58275E-04    -.32388E+00     .28368E-01    -.11573E-02         .000      .000
    .180    -.15133E-03    -.63156E-04    -.20470E+00     .47864E-02    -.24239E-02         .000      .000
    .190    -.18551E-03    -.70213E-04    -.44279E-01     .11858E-02    -.41556E-02         .000      .000
    .200    -.23414E-03    -.84715E-04    -.13374E-01     .42421E-01    -.57934E-02         .000      .000
    .210    -.29877E-03    -.10777E-03    -.11999E+00     .73918E-01    -.66716E-02         .000      .000
    .220    -.36459E-03    -.13885E-03    -.35821E+00     .10646E+00    -.66443E-02         .000      .000
    .230    -.43033E-03    -.17440E-03    -.68607E+00     .10978E+00    -.62341E-02         .000      .000
    .240    -.48967E-03    -.20973E-03    -.96763E+00     .10691E+00    -.59277E-02         .000      .000
    .250    -.54901E-03    -.24125E-03    -.11170E+01     .96309E-01    -.56660E-02         .000      .000
    .260    -.60069E-03    -.26874E-03    -.11597E+01     .11070E+00    -.47012E-02         .000      .000
    .270    -.63582E-03    -.29249E-03    -.11996E+01     .12622E+00    -.15903E-02         .000      .000
    .280    -.62671E-03    -.31084E-03    -.13418E+01     .13501E+00     .32471E-02         .000      .000
    .290    -.57096E-03    -.31589E-03    -.13877E+01     .53675E-01     .80352E-02         .000      .000
    .300    -.47175E-03    -.30212E-03    -.11107E+01    -.72838E-01     .11140E-01         .000      .000
    .310    -.35961E-03    -.27055E-03    -.52698E+00    -.20318E+00     .10817E-01         .000      .000
    .320    -.26735E-03    -.22851E-03     .33777E+00    -.29092E+00     .69356E-02         .000      .000
    .330    -.22385E-03    -.19037E-03     .12322E+01    -.30950E+00     .21779E-02         .000      .000
    .340    -.21462E-03    -.17267E-03     .15990E+01    -.22248E+00     .17020E-03         .000      .000
    .350    -.19640E-03    -.17839E-03     .10979E+01    -.11307E+00     .53285E-02         .000      .000
    .360    -.81818E-04    -.19014E-03    -.26365E+00    -.35462E-01     .18323E-01         .000      .000
    .370     .16675E-03    -.16684E-03    -.16590E+01    -.16478E+00     .30254E-01         .000      .000
    .380     .47570E-03    -.67506E-04    -.13461E+01    -.55932E+00     .27978E-01         .000      .000
    .390     .66507E-03     .98846E-04     .14773E+01    -.94313E+00     .75064E-02         .000      .000
    .400     .59920E-03     .25460E-03     .51334E+01    -.83530E+00    -.20818E-01         .000      .000
    .410     .27837E-03     .30700E-03     .68117E+01    -.19249E+00    -.40352E-01         .000      .000
    .420    -.16182E-03     .21722E-03     .50778E+01     .54620E+00    -.46304E-01         .000      .000
    .430    -.62187E-03     .22592E-04     .12148E+01     .81392E+00    -.44619E-01         .000      .000
    .440    -.10563E-02    -.21479E-03    -.29561E+01     .75861E+00    -.43411E-01         .000      .000
    .450    -.15155E-02    -.44198E-03    -.63306E+01     .72540E+00    -.49737E-01         .000      .000
    .460    -.20709E-02    -.62758E-03    -.77705E+01     .89479E+00    -.61949E-01         .000      .000
    .470    -.27404E-02    -.78497E-03    -.73847E+01     .13058E+01    -.69963E-01         .000      .000
    .480    -.34295E-02    -.96159E-03    -.68713E+01     .18532E+01    -.65876E-01         .000      .000
    .490    -.40105E-02    -.11879E-02    -.74929E+01     .21679E+01    -.47693E-01         .000      .000
    .500    -.43359E-02    -.14549E-02    -.94614E+01     .21220E+01    -.15269E-01         .000      .000
    .510    -.42929E-02    -.17108E-02    -.12400E+02     .17527E+01     .24028E-01         .000      .000
    .520    -.38828E-02    -.18643E-02    -.14182E+02     .99025E+00     .55077E-01         .000      .000
    .530    -.32559E-02    -.18428E-02    -.12054E+02    -.68653E-01     .66895E-01         .000      .000
    .540    -.26133E-02    -.16649E-02    -.58710E+01    -.94913E+00     .58374E-01         .000      .000
    .550    -.21164E-02    -.14318E-02     .18568E+01    -.13670E+01     .41491E-01         .000      .000
    .560    -.17449E-02    -.12648E-02     .75436E+01    -.13101E+01     .36118E-01         .000      .000
    .570    -.13299E-02    -.12227E-02     .85306E+01    -.11755E+01     .49772E-01         .000      .000
    .580    -.73414E-03    -.12504E-02     .58327E+01    -.15529E+01     .67864E-01         .000      .000
    .590    -.27509E-04    -.12293E-02     .33735E+01    -.25291E+01     .69629E-01         .000      .000
    .600     .53914E-03    -.10867E-02     .39031E+01    -.34026E+01     .35916E-01         .000      .000
    .610     .54871E-03    -.84588E-03     .84052E+01    -.36789E+01    -.40267E-01         .000      .000
    .620    -.35239E-03    -.65173E-03     .15351E+02    -.29737E+01    -.14214E+00         .000      .000
    .630    -.22876E-02    -.73676E-03     .19523E+02    -.11803E+01    -.24214E+00         .000      .000
    .640    -.50982E-02    -.12911E-02     .15846E+02     .12311E+01    -.31329E+00         .000      .000
    .650    -.83711E-02    -.23533E-02     .23811E+01     .36635E+01    -.32998E+00         .000      .000
    .660    -.11494E-01    -.37708E-02    -.19545E+02     .57481E+01    -.28582E+00         .000      .000
    .670    -.13837E-01    -.52080E-02    -.43832E+02     .69571E+01    -.16662E+00         .000      .000
    .680    -.14580E-01    -.62693E-02    -.64881E+02     .75251E+01     .26467E-01         .000      .000
    .690    -.13294E-01    -.65388E-02    -.75362E+02     .63745E+01     .22307E+00         .000      .000
    .700    -.10371E-01    -.57394E-02    -.63641E+02     .26338E+01     .34422E+00         .000      .000
    .710    -.67083E-02    -.40695E-02    -.30312E+02    -.15018E+01     .37694E+00         .000      .000
    .720    -.30116E-02    -.21424E-02     .75092E+01    -.34505E+01     .35638E+00         .000      .000
    .730     .31852E-03    -.51461E-03     .35108E+02    -.40213E+01     .30485E+00         .000      .000
    .740     .30113E-02     .55325E-03     .50206E+02    -.52117E+01     .23077E+00         .000      .000
    .750     .49146E-02     .98505E-03     .52850E+02    -.67069E+01     .15139E+00         .000      .000
    .760     .61622E-02     .86427E-03     .41657E+02    -.70127E+01     .10928E+00         .000      .000
    .770     .73042E-02     .52661E-03     .19793E+02    -.59432E+01     .12793E+00         .000      .000
    .780     .87788E-02     .52518E-03     .26259E+00    -.55128E+01     .16318E+00         .000      .000
    .790     .10380E-01     .12868E-02    -.11325E+01    -.68726E+01     .14234E+00         .000      .000
    .800     .11353E-01     .27165E-02     .17653E+02    -.80519E+01     .41002E-01         .000      .000
    .810     .11094E-01     .42283E-02     .41577E+02    -.63691E+01    -.91614E-01         .000      .000
    .820     .96398E-02     .51912E-02     .52696E+02    -.20140E+01    -.18939E+00         .000      .000
    .830     .75095E-02     .53294E-02     .44529E+02     .22156E+01    -.22722E+00         .000      .000
    .840     .51678E-02     .47593E-02     .22069E+02     .43503E+01    -.24359E+00         .000      .000
    .850     .25409E-02     .38046E-02    -.39917E+01     .47583E+01    -.28842E+00         .000      .000
    .860    -.72330E-03     .27454E-02    -.25167E+02     .57321E+01    -.36919E+00         .000      .000
    .870    -.48648E-02     .16997E-02    -.38549E+02     .85546E+01    -.45649E+00         .000      .000
    .880    -.97194E-02     .62937E-03    -.44521E+02     .12417E+02    -.50422E+00         .000      .000
    .890    -.14671E-01    -.62719E-03    -.47875E+02     .15929E+02    -.46898E+00         .000      .000
    .900    -.18719E-01    -.22156E-02    -.56575E+02     .18205E+02    -.32027E+00         .000      .000
    .910    -.20622E-01    -.40347E-02    -.75085E+02     .18620E+02    -.35606E-01         .000      .000
    .920    -.19010E-01    -.56012E-02    -.99678E+02     .16601E+02     .37502E+00         .000      .000
    .930    -.13025E-01    -.61004E-02    -.11582E+03     .10890E+02     .81412E+00         .000      .000
    .940    -.32909E-02    -.47327E-02    -.10015E+03     .55042E+00     .10846E+01         .000      .000
    .950     .75893E-02    -.13452E-02    -.35143E+02    -.12450E+02     .10337E+01         .000      .000
    .960     .16458E-01     .30573E-02     .65067E+02    -.21662E+02     .70802E+00         .000      .000
    .970     .21643E-01     .67050E-02     .15389E+03    -.22257E+02     .35078E+00         .000      .000
    .980     .24143E-01     .82316E-02     .18568E+03    -.16448E+02     .19178E+00         .000      .000
    .990     .26254E-01     .76527E-02     .15335E+03    -.12627E+02     .26217E+00         .000      .000
   1.000     .29571E-01     .62325E-02     .89439E+02    -.15768E+02     .38766E+00         .000      .000
   1.010     .33353E-01     .55427E-02     .38913E+02    -.23458E+02     .31923E+00         .000      .000
   1.020     .34987E-01     .64474E-02     .33840E+02    -.28519E+02    -.36536E-01         .000      .000
   1.030     .32097E-01     .85120E-02     .70214E+02    -.24410E+02    -.54861E+00         .000      .000
   1.040     .24188E-01     .10333E-01     .11313E+03    -.11397E+02    -.10104E+01         .000      .000
   1.050     .12410E-01     .10459E-01     .12706E+03     .36536E+01    -.13188E+01         .000      .000
   1.060    -.16209E-02     .80697E-02     .95113E+02     .14917E+02    -.14581E+01         .000      .000
   1.070    -.16130E-01     .31719E-02     .13416E+02     .23213E+02    -.14099E+01         .000      .000
   1.080    -.29226E-01    -.32413E-02    -.10576E+03     .30760E+02    -.11841E+01         .000      .000
   1.090    -.39445E-01    -.93126E-02    -.22056E+03     .35694E+02    -.84932E+00         .000      .000
   1.100    -.46154E-01    -.13279E-01    -.28158E+03     .36212E+02    -.49701E+00         .000      .000
   1.110    -.49474E-01    -.14529E-01    -.27070E+03     .33938E+02    -.17019E+00         .000      .000
   1.120    -.49520E-01    -.13760E-01    -.21010E+03     .31627E+02     .16844E+00         .000      .000
   1.130    -.45932E-01    -.12221E-01    -.13905E+03     .28897E+02     .55806E+00         .000      .000
   1.140    -.38367E-01    -.10799E-01    -.82731E+02     .22015E+02     .94391E+00         .000      .000
   1.150    -.27470E-01    -.97056E-02    -.41685E+02     .88308E+01     .12052E+01         .000      .000
   1.160    -.14913E-01    -.87673E-02    -.67530E+01    -.71595E+01     .12738E+01         .000      .000
   1.170    -.25654E-02    -.77574E-02     .26564E+02    -.20226E+02     .11728E+01         .000      .000
   1.180     .82323E-02    -.64611E-02     .61921E+02    -.28431E+02     .97868E+00         .000      .000
   1.190     .16949E-01    -.47942E-02     .10238E+03    -.33312E+02     .76624E+00         .000      .000
   1.200     .23700E-01    -.29475E-02     .14231E+03    -.36437E+02     .59631E+00         .000      .000
   1.210     .29125E-01    -.12630E-02     .16675E+03    -.37826E+02     .50122E+00         .000      .000
   1.220     .33898E-01     .16780E-03     .16664E+03    -.38095E+02     .45764E+00         .000      .000
   1.230     .38320E-01     .16754E-02     .15013E+03    -.38230E+02     .42646E+00         .000      .000
   1.240     .42277E-01     .37247E-02     .13091E+03    -.37549E+02     .35064E+00         .000      .000
   1.250     .44920E-01     .66153E-02     .12160E+03    -.35436E+02     .15142E+00         .000      .000
   1.260     .44793E-01     .10200E-01     .12997E+03    -.31003E+02    -.20046E+00         .000      .000
   1.270     .40737E-01     .13686E-01     .14544E+03    -.22009E+02    -.60349E+00         .000      .000
   1.280     .33156E-01     .15959E-01     .13827E+03    -.71649E+01    -.87737E+00         .000      .000
   1.290     .23988E-01     .16434E-01     .86969E+02     .97571E+01    -.91437E+00         .000      .000
   1.300     .15570E-01     .15542E-01     .15197E+01     .22623E+02    -.74274E+00         .000      .000
   1.310     .93422E-02     .14376E-01    -.87617E+02     .29088E+02    -.50827E+00         .000      .000
   1.320     .49736E-02     .13999E-01    -.14793E+03     .31061E+02    -.40192E+00         .000      .000
   1.330     .84200E-03     .14802E-01    -.15851E+03     .32584E+02    -.43212E+00         .000      .000
   1.340    -.34879E-02     .16130E-01    -.13622E+03     .38992E+02    -.40705E+00         .000      .000
   1.350    -.67043E-02     .17000E-01    -.11790E+03     .47824E+02    -.20651E+00         .000      .000
   1.360    -.71967E-02     .17065E-01    -.11223E+03     .49984E+02     .11758E+00         .000      .000
   1.370    -.43864E-02     .16486E-01    -.10870E+03     .42608E+02     .43240E+00         .000      .000
   1.380     .11073E-02     .15519E-01    -.10335E+03     .30996E+02     .64651E+00         .000      .000
   1.390     .81937E-02     .14523E-01    -.93301E+02     .20457E+02     .75675E+00         .000      .000
   1.400     .16109E-01     .13955E-01    -.68801E+02     .11770E+02     .82654E+00         .000      .000
   1.410     .24767E-01     .14073E-01    -.24664E+02     .33323E+01     .90852E+00         .000      .000
   1.420     .34198E-01     .14800E-01     .33400E+02    -.66157E+01     .96582E+00         .000      .000
   1.430     .43770E-01     .15835E-01     .97349E+02    -.18463E+02     .92970E+00         .000      .000
   1.440     .52437E-01     .16722E-01     .15561E+03    -.29430E+02     .78831E+00         .000      .000
   1.450     .59303E-01     .17066E-01     .19415E+03    -.36747E+02     .57746E+00         .000      .000
   1.460     .63914E-01     .16813E-01     .20949E+03    -.40648E+02     .34456E+00         .000      .000
   1.470     .66216E-01     .16214E-01     .20855E+03    -.42412E+02     .11780E+00         .000      .000
   1.480     .66237E-01     .15584E-01     .19929E+03    -.42512E+02    -.11866E+00         .000      .000
   1.490     .63653E-01     .15120E-01     .18858E+03    -.40809E+02    -.41191E+00         .000      .000
   1.500     .57805E-01     .14757E-01     .18025E+03    -.36383E+02    -.76271E+00         .000      .000
   1.510     .48487E-01     .14089E-01     .16663E+03    -.27474E+02    -.10865E+01         .000      .000
   1.520     .36452E-01     .12647E-01     .13290E+03    -.14420E+02    -.12986E+01         .000      .000
   1.530     .22929E-01     .10347E-01     .76815E+02    -.10440E+01    -.13884E+01         .000      .000
   1.540     .88885E-02     .74831E-02     .10995E+02     .96716E+01    -.14172E+01         .000      .000
   1.550    -.54458E-02     .43956E-02    -.50387E+02     .18127E+02    -.14545E+01         .000      .000
   1.560    -.20234E-01     .12162E-02    -.10030E+03     .26763E+02    -.15007E+01         .000      .000
   1.570    -.35225E-01    -.21512E-02    -.14070E+03     .36974E+02    -.14766E+01         .000      .000
   1.580    -.49212E-01    -.58476E-02    -.17816E+03     .47299E+02    -.12875E+01         .000      .000
   1.590    -.60395E-01    -.98086E-02    -.21587E+03     .54088E+02    -.92591E+00         .000      .000
   1.600    -.67405E-01    -.13665E-01    -.24657E+03     .54175E+02    -.46756E+00         .000      .000
   1.610    -.69528E-01    -.16954E-01    -.26082E+03     .48508E+02     .57387E-01         .000      .000
   1.620    -.66004E-01    -.19288E-01    -.26035E+03     .40662E+02     .65899E+00         .000      .000
   1.630    -.56320E-01    -.20116E-01    -.24241E+03     .29905E+02     .12678E+01         .000      .000
   1.640    -.41022E-01    -.18811E-01    -.18816E+03     .13213E+02     .17644E+01         .000      .000
   1.650    -.21729E-01    -.15338E-01    -.91577E+02    -.72381E+01     .20538E+01         .000      .000
   1.660    -.74603E-03    -.10424E-01     .27852E+02    -.26613E+02     .21049E+01         .000      .000
   1.670     .19657E-01    -.50936E-02     .14402E+03    -.42209E+02     .19433E+01         .000      .000
   1.680     .37486E-01    -.22862E-03     .23884E+03    -.54260E+02     .15915E+01         .000      .000
   1.690     .50933E-01     .35716E-02     .30460E+03    -.63335E+02     .10737E+01         .000      .000
   1.700     .58633E-01     .59128E-02     .33550E+03    -.67597E+02     .45886E+00         .000      .000
   1.710     .60176E-01     .66549E-02     .32558E+03    -.64814E+02    -.13568E+00         .000      .000
   1.720     .56412E-01     .60816E-02     .27677E+03    -.55507E+02    -.58344E+00         .000      .000
   1.730     .49097E-01     .48994E-02     .20227E+03    -.42831E+02    -.85607E+00         .000      .000
   1.740     .39652E-01     .39873E-02     .12602E+03    -.30657E+02    -.10213E+01         .000      .000
   1.750     .28945E-01     .38674E-02     .65877E+02    -.18724E+02    -.11033E+01         .000      .000
   1.760     .17905E-01     .44650E-02     .16487E+02    -.41580E+01    -.10892E+01         .000      .000
   1.770     .73753E-02     .55495E-02    -.29244E+02     .11317E+02    -.10123E+01         .000      .000
   1.780    -.22441E-02     .69553E-02    -.64727E+02     .23870E+02    -.90694E+00         .000      .000
   1.790    -.10711E-01     .83122E-02    -.91553E+02     .33897E+02    -.78521E+00         .000      .000
   1.800    -.17976E-01     .91838E-02    -.11990E+03     .42509E+02    -.67171E+00         .000      .000
   1.810    -.24130E-01     .93990E-02    -.14901E+03     .49075E+02    -.55369E+00         .000      .000
   1.820    -.28867E-01     .89669E-02    -.17557E+03     .53835E+02    -.38080E+00         .000      .000
   1.830    -.31485E-01     .80386E-02    -.19909E+03     .56295E+02    -.13036E+00         .000      .000
