


 TIME HISTORY FOR STORY NO.  6



    TIME   DISPLACEMENT    STORY DRIFT    STORY SHEAR   ACCELERATION     VELOCITY          DAMAGE    DAMAGE
                                                                                          BEAM-SLAB  COL-WALL

    .000     .00000E+00     .00000E+00     .00000E+00     .00000E+00     .00000E+00         .000      .000
    .010    -.24490E-05    -.78972E-09    -.42907E-05     .20679E-03    -.46704E-03         .000      .000
    .020    -.94760E-05    -.13618E-07    -.20922E-02     .11395E-02    -.98764E-03         .000      .000
    .030    -.22255E-04     .13070E-06    -.11569E-01     .34404E-02    -.15249E-02         .000      .000
    .040    -.39998E-04     .11488E-05    -.12636E-01     .25134E-02    -.20717E-02         .000      .000
    .050    -.63676E-04     .35447E-05     .24732E-01    -.69708E-02    -.26154E-02         .000      .000
    .060    -.92158E-04     .63448E-05     .10100E+00    -.22648E-01    -.31121E-02         .000      .000
    .070    -.12601E-03     .73317E-05     .18303E+00    -.37507E-01    -.36349E-02         .000      .000
    .080    -.16521E-03     .43281E-05     .24437E+00    -.47303E-01    -.42621E-02         .000      .000
    .090    -.21186E-03    -.42041E-05     .26806E+00    -.49015E-01    -.50693E-02         .000      .000
    .100    -.26790E-03    -.18813E-04     .24156E+00    -.40546E-01    -.62659E-02         .000      .000
    .110    -.33808E-03    -.38622E-04     .16647E+00    -.23479E-01    -.77348E-02         .000      .000
    .120    -.42177E-03    -.61329E-04     .67363E-01    -.38204E-02    -.89587E-02         .000      .000
    .130    -.51535E-03    -.83883E-04    -.10791E-01     .83872E-02    -.96165E-02         .000      .000
    .140    -.61314E-03    -.10402E-03    -.80613E-02     .22769E-02    -.99890E-02         .000      .000
    .150    -.71443E-03    -.12259E-03     .89673E-01    -.20369E-01    -.10148E-01         .000      .000
    .160    -.81487E-03    -.14395E-03     .20704E+00    -.40839E-01    -.99312E-02         .000      .000
    .170    -.91275E-03    -.17266E-03     .24252E+00    -.41749E-01    -.96215E-02         .000      .000
    .180    -.10068E-02    -.21015E-03     .16672E+00    -.21722E-01    -.91743E-02         .000      .000
    .190    -.10947E-02    -.25480E-03    -.85982E-02     .16291E-01    -.82788E-02         .000      .000
    .200    -.11683E-02    -.30247E-03    -.26006E+00     .66015E-01    -.61474E-02         .000      .000
    .210    -.12120E-02    -.34693E-03    -.51986E+00     .11150E+00    -.23076E-02         .000      .000
    .220    -.12113E-02    -.38231E-03    -.69432E+00     .13602E+00     .24552E-02         .000      .000
    .230    -.11645E-02    -.40669E-03    -.75864E+00     .14211E+00     .67380E-02         .000      .000
    .240    -.10840E-02    -.42248E-03    -.82399E+00     .15850E+00     .88198E-02         .000      .000
    .250    -.99223E-03    -.43109E-03    -.10449E+01     .21124E+00     .96647E-02         .000      .000
    .260    -.89095E-03    -.42627E-03    -.14312E+01     .28959E+00     .10416E-01         .000      .000
    .270    -.78716E-03    -.39370E-03    -.17429E+01     .33479E+00     .10167E-01         .000      .000
    .280    -.68971E-03    -.32116E-03    -.16435E+01     .28849E+00     .92770E-02         .000      .000
    .290    -.60455E-03    -.21046E-03    -.10751E+01     .15955E+00     .75233E-02         .000      .000
    .300    -.54151E-03    -.76155E-04    -.21639E+00    -.13953E-01     .51015E-02         .000      .000
    .310    -.50158E-03     .61783E-04     .77481E+00    -.20504E+00     .29684E-02         .000      .000
    .320    -.48568E-03     .18099E-03     .17441E+01    -.38187E+00    -.21323E-03         .000      .000
    .330    -.51810E-03     .25941E-03     .25000E+01    -.50497E+00    -.70515E-02         .000      .000
    .340    -.63708E-03     .27985E-03     .28118E+01    -.52876E+00    -.16980E-01         .000      .000
    .350    -.86001E-03     .23810E-03     .25036E+01    -.43176E+00    -.27608E-01         .000      .000
    .360    -.11937E-02     .15022E-03     .17757E+01    -.27954E+00    -.39610E-01         .000      .000
    .370    -.16491E-02     .43468E-04     .12043E+01    -.18957E+00    -.50712E-01         .000      .000
    .380    -.21885E-02    -.66066E-04     .11376E+01    -.20317E+00    -.55986E-01         .000      .000
    .390    -.27462E-02    -.18098E-03     .15113E+01    -.29729E+00    -.54472E-01         .000      .000
    .400    -.32609E-02    -.31754E-03     .22260E+01    -.45093E+00    -.47836E-01         .000      .000
    .410    -.36961E-02    -.50719E-03     .29135E+01    -.56416E+00    -.39115E-01         .000      .000
    .420    -.40484E-02    -.78601E-03     .27137E+01    -.45560E+00    -.31885E-01         .000      .000
    .430    -.43455E-02    -.11624E-02     .91675E+00    -.21376E-01    -.28143E-01         .000      .000
    .440    -.46276E-02    -.15927E-02    -.23648E+01     .66615E+00    -.29369E-01         .000      .000
    .450    -.49406E-02    -.19873E-02    -.61922E+01     .13907E+01    -.33008E-01         .000      .000
    .460    -.52876E-02    -.22410E-02    -.92265E+01     .18885E+01    -.36674E-01         .000      .000
    .470    -.56906E-02    -.22716E-02    -.10198E+02     .19341E+01    -.45343E-01         .000      .000
    .480    -.62103E-02    -.20566E-02    -.83900E+01     .14420E+01    -.58734E-01         .000      .000
    .490    -.68636E-02    -.16517E-02    -.42626E+01     .56526E+00    -.71522E-01         .000      .000
    .500    -.76375E-02    -.11666E-02     .96964E+00    -.45712E+00    -.83275E-01         .000      .000
    .510    -.85379E-02    -.72655E-03     .63479E+01    -.14604E+01    -.97628E-01         .000      .000
    .520    -.95788E-02    -.45870E-03     .10882E+02    -.22352E+01    -.10853E+00         .000      .000
    .530    -.10648E-01    -.47021E-03     .13195E+02    -.25251E+01    -.10115E+00         .000      .000
    .540    -.11515E-01    -.80304E-03     .12704E+02    -.23069E+01    -.67901E-01         .000      .000
    .550    -.11920E-01    -.14290E-02     .10307E+02    -.18028E+01    -.89516E-02         .000      .000
    .560    -.11634E-01    -.23034E-02     .66659E+01    -.10633E+01     .68001E-01         .000      .000
    .570    -.10527E-01    -.33878E-02     .90597E+00     .15125E+00     .15496E+00         .000      .000
    .580    -.85289E-02    -.45991E-02    -.81395E+01     .20276E+01     .24381E+00         .000      .000
    .590    -.56622E-02    -.57552E-02    -.20193E+02     .44101E+01     .32902E+00         .000      .000
    .600    -.19325E-02    -.65795E-02    -.33222E+02     .68313E+01     .41886E+00         .000      .000
    .610     .27424E-02    -.67587E-02    -.44259E+02     .86929E+01     .51675E+00         .000      .000
    .620     .84080E-02    -.60229E-02    -.50020E+02     .93759E+01     .61613E+00         .000      .000
    .630     .15018E-01    -.42418E-02    -.48206E+02     .85641E+01     .70140E+00         .000      .000
    .640     .22328E-01    -.14870E-02    -.39305E+02     .65269E+01     .75451E+00         .000      .000
    .650     .29964E-01     .20072E-02    -.26161E+02     .38868E+01     .76461E+00         .000      .000
    .660     .37436E-01     .59514E-02    -.11794E+02     .11719E+01     .71963E+00         .000      .000
    .670     .44137E-01     .10089E-01     .23330E+01    -.14361E+01     .60899E+00         .000      .000
    .680     .49415E-01     .14214E-01     .16196E+02    -.39877E+01     .43817E+00         .000      .000
    .690     .52776E-01     .18151E-01     .30387E+02    -.66358E+01     .23006E+00         .000      .000
    .700     .53952E-01     .21731E-01     .46215E+02    -.96843E+01     .27306E-02         .000      .000
    .710     .52802E-01     .24724E-01     .65223E+02    -.13387E+02    -.23337E+00         .000      .000
    .720     .49320E-01     .26754E-01     .86521E+02    -.17370E+02    -.45866E+00         .000      .000
    .730     .43739E-01     .27315E-01     .10524E+03    -.20535E+02    -.65055E+00         .000      .000
    .740     .36412E-01     .25927E-01     .11520E+03    -.21741E+02    -.81130E+00         .000      .000
    .750     .27572E-01     .22307E-01     .11200E+03    -.20267E+02    -.95408E+00         .000      .000
    .760     .17437E-01     .16468E-01     .92937E+02    -.15677E+02    -.10648E+01         .000      .000
    .770     .64753E-02     .87957E-02     .57568E+02    -.81140E+01    -.11159E+01         .000      .000
    .780    -.46272E-02     .10191E-03     .11245E+02     .10128E+01    -.10916E+01         .000      .000
    .790    -.15075E-01    -.85519E-02    -.35311E+02     .95201E+01    -.98370E+00         .000      .000
    .800    -.24003E-01    -.16197E-01    -.72762E+02     .15889E+02    -.78670E+00         .000      .000
    .810    -.30561E-01    -.22191E-01    -.97513E+02     .19755E+02    -.51523E+00         .000      .000
    .820    -.34170E-01    -.26234E-01    -.11021E+03     .21421E+02    -.20251E+00         .000      .000
    .830    -.34559E-01    -.28303E-01    -.11398E+03     .21624E+02     .12600E+00         .000      .000
    .840    -.31672E-01    -.28524E-01    -.11372E+03     .21340E+02     .44818E+00         .000      .000
    .850    -.25678E-01    -.26997E-01    -.11284E+03     .21033E+02     .74573E+00         .000      .000
    .860    -.16920E-01    -.23697E-01    -.11042E+03     .20298E+02     .99435E+00         .000      .000
    .870    -.60384E-02    -.18541E-01    -.10251E+03     .18308E+02     .11685E+01         .000      .000
    .880     .61695E-02    -.11537E-01    -.85185E+02     .14395E+02     .12586E+01         .000      .000
    .890     .18791E-01    -.28992E-02    -.56410E+02     .82889E+01     .12460E+01         .000      .000
    .900     .30700E-01     .68935E-02    -.16098E+02     .94342E-01     .11169E+01         .000      .000
    .910     .40760E-01     .17082E-01     .32968E+02    -.94594E+01     .87766E+00         .000      .000
    .920     .47904E-01     .26693E-01     .84545E+02    -.19050E+02     .53436E+00         .000      .000
    .930     .51182E-01     .34714E-01     .13170E+03    -.27420E+02     .11204E+00         .000      .000
    .940     .50074E-01     .40258E-01     .16895E+03    -.33640E+02    -.33140E+00         .000      .000
    .950     .44734E-01     .42666E-01     .19257E+03    -.37157E+02    -.72067E+00         .000      .000
    .960     .36040E-01     .41559E-01     .20149E+03    -.37939E+02    -.99625E+00         .000      .000
    .970     .25099E-01     .36792E-01     .19605E+03    -.36027E+02    -.11849E+01         .000      .000
    .980     .12380E-01     .28383E-01     .17427E+03    -.30779E+02    -.13616E+01         .000      .000
    .990    -.21100E-02     .16572E-01     .12976E+03    -.20795E+02    -.15308E+01         .000      .000
   1.000    -.18043E-01     .21459E-02     .57641E+02    -.55829E+01    -.16424E+01         .000      .000
   1.010    -.34505E-01    -.13287E-01    -.33313E+02     .12173E+02    -.16196E+01         .000      .000
   1.020    -.49735E-01    -.27579E-01    -.11968E+03     .27520E+02    -.13888E+01         .000      .000
   1.030    -.61644E-01    -.38843E-01    -.17885E+03     .36665E+02    -.96788E+00         .000      .000
   1.040    -.68754E-01    -.46107E-01    -.20199E+03     .38894E+02    -.44491E+00         .000      .000
   1.050    -.70517E-01    -.49443E-01    -.19686E+03     .36564E+02     .86773E-01         .000      .000
   1.060    -.67170E-01    -.49560E-01    -.18166E+03     .33410E+02     .57427E+00         .000      .000
   1.070    -.59197E-01    -.47124E-01    -.17159E+03     .31793E+02     .10126E+01         .000      .000
   1.080    -.47053E-01    -.42303E-01    -.16872E+03     .31301E+02     .14099E+01         .000      .000
   1.090    -.31079E-01    -.34835E-01    -.16327E+03     .29620E+02     .17826E+01         .000      .000
   1.100    -.11466E-01    -.24454E-01    -.14263E+03     .24453E+02     .21356E+01         .000      .000
   1.110     .11432E-01    -.11332E-01    -.99312E+02     .14799E+02     .24281E+01         .000      .000
   1.120     .36708E-01     .37039E-02    -.34585E+02     .14749E+01     .26048E+01         .000      .000
   1.130     .63021E-01     .19210E-01     .39985E+02    -.12764E+02     .26308E+01         .000      .000
   1.140     .88808E-01     .33513E-01     .10645E+03    -.24400E+02     .25031E+01         .000      .000
   1.150     .11257E+00     .45269E-01     .15044E+03    -.31158E+02     .22221E+01         .000      .000
   1.160     .13273E+00     .53830E-01     .16796E+03    -.32881E+02     .17840E+01         .000      .000
   1.170     .14783E+00     .59248E-01     .16388E+03    -.30864E+02     .12186E+01         .000      .000
   1.180     .15676E+00     .62055E-01     .14743E+03    -.27050E+02     .54945E+00         .000      .000
   1.190     .15864E+00     .63009E-01     .13069E+03    -.23886E+02    -.17198E+00         .000      .000
   1.200     .15338E+00     .62733E-01     .12525E+03    -.23394E+02    -.87595E+00         .000      .000
   1.210     .14115E+00     .61384E-01     .13618E+03    -.26084E+02    -.15739E+01         .000      .000
   1.220     .12180E+00     .58536E-01     .15989E+03    -.30742E+02    -.23007E+01         .000      .000
   1.230     .95127E-01     .53311E-01     .18308E+03    -.34339E+02    -.30275E+01         .000      .000
   1.240     .61449E-01     .44862E-01     .18827E+03    -.33728E+02    -.36939E+01         .000      .000
   1.250     .21720E-01     .32967E-01     .16836E+03    -.28470E+02    -.42196E+01         .000      .000
   1.260    -.22202E-01     .18137E-01     .13087E+03    -.20610E+02    -.45240E+01         .000      .000
   1.270    -.67939E-01     .12072E-02     .87124E+02    -.12204E+02    -.45829E+01         .000      .000
   1.280    -.11314E+00    -.17055E-01     .43462E+02    -.40673E+01    -.44266E+01         .000      .000
   1.290    -.15595E+00    -.36097E-01    -.95820E+00     .43801E+01    -.41138E+01         .000      .000
   1.300    -.19502E+00    -.55465E-01    -.52486E+02     .14541E+02    -.36802E+01         .000      .000
   1.310    -.22915E+00    -.74496E-01    -.11686E+03     .27256E+02    -.31245E+01         .000      .000
   1.320    -.25706E+00    -.92067E-01    -.19188E+03     .41536E+02    -.24351E+01         .000      .000
   1.330    -.27735E+00    -.10665E+00    -.26566E+03     .54682E+02    -.15962E+01         .000      .000
   1.340    -.28857E+00    -.11669E+00    -.32265E+03     .63786E+02    -.63453E+00         .000      .000
   1.350    -.28981E+00    -.12110E+00    -.35139E+03     .67064E+02     .39602E+00         .000      .000
   1.360    -.28058E+00    -.11948E+00    -.34883E+03     .64485E+02     .14473E+01         .000      .000
   1.370    -.26105E+00    -.11218E+00    -.32052E+03     .57502E+02     .24414E+01         .000      .000
   1.380    -.23223E+00    -.10001E+00    -.27564E+03     .47967E+02     .32944E+01         .000      .000
   1.390    -.19603E+00    -.83988E-01    -.22346E+03     .37660E+02     .38902E+01         .000      .000
   1.400    -.15568E+00    -.65083E-01    -.17154E+03     .27887E+02     .41088E+01         .000      .000
   1.410    -.11500E+00    -.44011E-01    -.12241E+03     .18756E+02     .39820E+01         .000      .000
   1.420    -.76664E-01    -.21156E-01    -.70835E+02     .86734E+01     .36678E+01         .000      .000
   1.430    -.41913E-01     .32358E-02    -.11220E+01    -.59447E+01     .32720E+01         .000      .000
   1.440    -.11552E-01     .28401E-01     .10519E+03    -.28185E+02     .27775E+01         .000      .000
   1.450     .13108E-01     .52239E-01     .24558E+03    -.55770E+02     .21261E+01         .000      .000
   1.460     .30369E-01     .71374E-01     .38486E+03    -.80501E+02     .12976E+01         .000      .000
   1.470     .38752E-01     .82430E-01     .47684E+03    -.93970E+02     .37889E+00         .000      .000
   1.480     .38145E-01     .83483E-01     .49516E+03    -.92828E+02    -.48023E+00         .000      .000
   1.490     .29708E-01     .74614E-01     .44274E+03    -.79136E+02    -.11727E+01         .000      .000
   1.500     .15421E-01     .57500E-01     .34089E+03    -.57505E+02    -.16480E+01         .000      .000
   1.510    -.24988E-02     .34617E-01     .21250E+03    -.32043E+02    -.18988E+01         .000      .000
   1.520    -.21794E-01     .86573E-02     .74327E+02    -.56068E+01    -.19223E+01         .000      .000
   1.530    -.40270E-01    -.17735E-01    -.61014E+02     .19555E+02    -.17445E+01         .000      .000
   1.540    -.56165E-01    -.42138E-01    -.18291E+03     .41583E+02    -.14119E+01         .000      .000
   1.550    -.67989E-01    -.62514E-01    -.28463E+03     .59483E+02    -.92390E+00         .000      .000
   1.560    -.74210E-01    -.77244E-01    -.36346E+03     .72838E+02    -.30630E+00         .000      .000
   1.570    -.74032E-01    -.85033E-01    -.41450E+03     .80490E+02     .33577E+00         .000      .000
   1.580    -.67679E-01    -.85019E-01    -.42958E+03     .80956E+02     .92231E+00         .000      .000
   1.590    -.55914E-01    -.77032E-01    -.40570E+03     .74103E+02     .14105E+01         .000      .000
   1.600    -.39938E-01    -.61594E-01    -.34463E+03     .60319E+02     .17582E+01         .000      .000
   1.610    -.21262E-01    -.39836E-01    -.24628E+03     .39485E+02     .19525E+01         .000      .000
   1.620    -.13552E-02    -.13629E-01    -.11321E+03     .12501E+02     .20075E+01         .000      .000
   1.630     .18326E-01     .14353E-01     .42037E+02    -.17669E+02     .18953E+01         .000      .000
   1.640     .35873E-01     .40920E-01     .19909E+03    -.46841E+02     .15813E+01         .000      .000
   1.650     .49394E-01     .62851E-01     .33376E+03    -.70296E+02     .11016E+01         .000      .000
   1.660     .57531E-01     .77492E-01     .42289E+03    -.83980E+02     .51056E+00         .000      .000
   1.670     .59447E-01     .83354E-01     .45490E+03    -.86594E+02    -.12802E+00         .000      .000
   1.680     .55003E-01     .80280E-01     .43311E+03    -.79449E+02    -.75743E+00         .000      .000
   1.690     .44470E-01     .69173E-01     .36794E+03    -.64729E+02    -.13360E+01         .000      .000
   1.700     .28610E-01     .51675E-01     .27156E+03    -.44826E+02    -.18175E+01         .000      .000
   1.710     .85286E-02     .29896E-01     .15717E+03    -.22323E+02    -.21776E+01         .000      .000
   1.720    -.14430E-01     .61481E-02     .38575E+02     .16463E+00    -.23849E+01         .000      .000
   1.730    -.38585E-01    -.17340E-01    -.72419E+02     .20576E+02    -.24177E+01         .000      .000
   1.740    -.62241E-01    -.38623E-01    -.16755E+03     .37516E+02    -.22881E+01         .000      .000
   1.750    -.83771E-01    -.56143E-01    -.24100E+03     .50007E+02    -.19861E+01         .000      .000
   1.760    -.10137E+00    -.68797E-01    -.28961E+03     .57593E+02    -.15057E+01         .000      .000
   1.770    -.11343E+00    -.75942E-01    -.31174E+03     .60000E+02    -.89060E+00         .000      .000
   1.780    -.11897E+00    -.77424E-01    -.30634E+03     .57179E+02    -.21255E+00         .000      .000
   1.790    -.11773E+00    -.73642E-01    -.27701E+03     .50202E+02     .45421E+00         .000      .000
   1.800    -.11012E+00    -.65427E-01    -.23261E+03     .40931E+02     .10516E+01         .000      .000
   1.810    -.96989E-01    -.53745E-01    -.18097E+03     .30626E+02     .15607E+01         .000      .000
   1.820    -.79120E-01    -.39514E-01    -.12468E+03     .19491E+02     .20051E+01         .000      .000
   1.830    -.57139E-01    -.23632E-01    -.62983E+02     .72980E+01     .23738E+01         .000      .000
