


 TIME HISTORY FOR STORY NO.  5



    TIME   DISPLACEMENT    STORY DRIFT    STORY SHEAR   ACCELERATION     VELOCITY          DAMAGE    DAMAGE
                                                                                          BEAM-SLAB  COL-WALL

    .000     .00000E+00     .00000E+00     .00000E+00     .00000E+00     .00000E+00         .000      .000
    .010    -.24482E-05    -.12895E-09    -.49595E-03     .37268E-03    -.46664E-03         .000      .000
    .020    -.94623E-05     .95298E-07    -.30549E-02     .23682E-03    -.98697E-03         .000      .000
    .030    -.22386E-04     .67848E-06     .13006E-01    -.53967E-02    -.15679E-02         .000      .000
    .040    -.41147E-04     .16724E-05     .59304E-01    -.12723E-01    -.22434E-02         .000      .000
    .050    -.67220E-04     .21696E-05     .11179E+00    -.12228E-01    -.29062E-02         .000      .000
    .060    -.98503E-04     .12165E-05     .15044E+00    -.43099E-02    -.33416E-02         .000      .000
    .070    -.13334E-03    -.18275E-05     .18629E+00     .29245E-02    -.35660E-02         .000      .000
    .080    -.16954E-03    -.78450E-05     .20986E+00     .87967E-02    -.37041E-02         .000      .000
    .090    -.20765E-03    -.17519E-04     .20469E+00     .12986E-01    -.39109E-02         .000      .000
    .100    -.24908E-03    -.30790E-04     .17145E+00     .12749E-01    -.45170E-02         .000      .000
    .110    -.29946E-03    -.46892E-04     .12839E+00     .61864E-02    -.55614E-02         .000      .000
    .120    -.36044E-03    -.64742E-04     .95982E-01    -.57966E-02    -.66436E-02         .000      .000
    .130    -.43147E-03    -.83525E-04     .10280E+00    -.18712E-01    -.74634E-02         .000      .000
    .140    -.50912E-03    -.10384E-03     .12741E+00    -.16720E-01    -.81020E-02         .000      .000
    .150    -.59184E-03    -.12715E-03     .11586E+00     .72451E-02    -.82413E-02         .000      .000
    .160    -.67092E-03    -.15409E-03     .53952E-01     .35786E-01    -.74832E-02         .000      .000
    .170    -.74010E-03    -.18440E-03    -.21178E-01     .48663E-01    -.63065E-02         .000      .000
    .180    -.79669E-03    -.21806E-03    -.13319E+00     .51878E-01    -.50192E-02         .000      .000
    .190    -.83994E-03    -.25395E-03    -.30564E+00     .48562E-01    -.35725E-02         .000      .000
    .200    -.86581E-03    -.28914E-03    -.49168E+00     .33835E-01    -.14274E-02         .000      .000
    .210    -.86503E-03    -.32077E-03    -.65147E+00     .17013E-01     .17599E-02         .000      .000
    .220    -.82903E-03    -.34746E-03    -.81601E+00     .21451E-01     .54302E-02         .000      .000
    .230    -.75780E-03    -.36836E-03    -.10562E+01     .56996E-01     .86883E-02         .000      .000
    .240    -.66149E-03    -.38047E-03    -.13694E+01     .93862E-01     .10065E-01         .000      .000
    .250    -.56113E-03    -.37794E-03    -.16311E+01     .84939E-01     .10040E-01         .000      .000
    .260    -.46468E-03    -.35429E-03    -.16743E+01     .11125E-01     .88191E-02         .000      .000
    .270    -.39346E-03    -.30705E-03    -.14175E+01    -.79069E-01     .50218E-02         .000      .000
    .280    -.36855E-03    -.23996E-03    -.10217E+01    -.10444E+00    -.50214E-04         .000      .000
    .290    -.39409E-03    -.15753E-03    -.52607E+00    -.80027E-01    -.50322E-02         .000      .000
    .300    -.46536E-03    -.65919E-04     .17595E+00    -.52491E-01    -.88693E-02         .000      .000
    .310    -.56336E-03     .22717E-04     .97587E+00    -.17619E-01    -.10272E-01         .000      .000
    .320    -.66667E-03     .93846E-04     .16763E+01     .29652E-01    -.10441E-01         .000      .000
    .330    -.77751E-03     .13495E-03     .21037E+01     .85241E-01    -.12208E-01         .000      .000
    .340    -.91693E-03     .14021E-03     .21784E+01     .11255E+00    -.15824E-01         .000      .000
    .350    -.10981E-02     .11353E-03     .21276E+01     .41072E-01    -.20695E-01         .000      .000
    .360    -.13439E-02     .60764E-04     .22191E+01    -.10260E+00    -.29448E-01         .000      .000
    .370    -.16926E-02    -.18513E-04     .23098E+01    -.17952E+00    -.39802E-01         .000      .000
    .380    -.21224E-02    -.12474E-03     .22789E+01    -.15862E+00    -.44928E-01         .000      .000
    .390    -.25652E-02    -.25790E-03     .23440E+01    -.95299E-01    -.42287E-01         .000      .000
    .400    -.29434E-02    -.42907E-03     .22280E+01     .72560E-01    -.32173E-01         .000      .000
    .410    -.31889E-02    -.65070E-03     .13173E+01     .35197E+00    -.16185E-01         .000      .000
    .420    -.32624E-02    -.91704E-03    -.44243E+00     .56723E+00     .11336E-02         .000      .000
    .430    -.31831E-02    -.12028E-02    -.26502E+01     .55950E+00     .13371E-01         .000      .000
    .440    -.30350E-02    -.14706E-02    -.48727E+01     .32346E+00     .13631E-01         .000      .000
    .450    -.29533E-02    -.16770E-02    -.66282E+01    -.38215E-01     .11017E-02         .000      .000
    .460    -.30466E-02    -.17824E-02    -.73686E+01    -.39404E+00    -.21473E-01         .000      .000
    .470    -.34190E-02    -.17670E-02    -.66875E+01    -.59364E+00    -.54844E-01         .000      .000
    .480    -.41537E-02    -.16426E-02    -.48155E+01    -.50373E+00    -.91259E-01         .000      .000
    .490    -.52119E-02    -.14420E-02    -.19970E+01    -.24523E+00    -.11807E+00         .000      .000
    .500    -.64709E-02    -.12164E-02     .17797E+01    -.96802E-02    -.13166E+00         .000      .000
    .510    -.78114E-02    -.10431E-02     .55695E+01     .27361E+00    -.13511E+00         .000      .000
    .520    -.91201E-02    -.99886E-03     .80040E+01     .61833E+00    -.12274E+00         .000      .000
    .530    -.10178E-01    -.11238E-02     .89108E+01     .75680E+00    -.83927E-01         .000      .000
    .540    -.10712E-01    -.14327E-02     .86729E+01     .63285E+00    -.19148E-01         .000      .000
    .550    -.10491E-01    -.19392E-02     .63173E+01     .66637E+00     .66693E-01         .000      .000
    .560    -.93309E-02    -.26284E-02     .53757E+00     .10727E+01     .16671E+00         .000      .000
    .570    -.71388E-02    -.34197E-02    -.83096E+01     .15117E+01     .27184E+00         .000      .000
    .580    -.39299E-02    -.41762E-02    -.18707E+02     .15623E+01     .36614E+00         .000      .000
    .590     .92948E-04    -.47320E-02    -.29084E+02     .11230E+01     .43320E+00         .000      .000
    .600     .46469E-02    -.49108E-02    -.38009E+02     .34813E+00     .47419E+00         .000      .000
    .610     .95012E-02    -.45461E-02    -.43598E+02    -.57710E+00     .49260E+00         .000      .000
    .620     .14431E-01    -.35297E-02    -.44535E+02    -.12617E+01     .49083E+00         .000      .000
    .630     .19260E-01    -.18415E-02    -.41191E+02    -.13165E+01     .47174E+00         .000      .000
    .640     .23815E-01     .47128E-03    -.34066E+02    -.91036E+00     .43731E+00         .000      .000
    .650     .27957E-01     .33121E-02    -.23200E+02    -.57665E+00     .38795E+00         .000      .000
    .660     .31485E-01     .65381E-02    -.87259E+01    -.71309E+00     .31173E+00         .000      .000
    .670     .34048E-01     .99644E-02     .84720E+01    -.12848E+01     .19278E+00         .000      .000
    .680     .35201E-01     .13389E-01     .27342E+02    -.21071E+01     .32292E-01         .000      .000
    .690     .34625E-01     .16607E-01     .47816E+02    -.31029E+01    -.14885E+00         .000      .000
    .700     .32221E-01     .19386E-01     .69788E+02    -.39451E+01    -.33071E+00         .000      .000
    .710     .28078E-01     .21424E-01     .90769E+02    -.38958E+01    -.49221E+00         .000      .000
    .720     .22566E-01     .22397E-01     .10676E+03    -.26549E+01    -.59715E+00         .000      .000
    .730     .16424E-01     .22038E-01     .11523E+03    -.86045E+00    -.61597E+00         .000      .000
    .740     .10485E-01     .20167E-01     .11450E+03     .81341E+00    -.56339E+00         .000      .000
    .750     .52650E-02     .16721E-01     .10185E+03     .22471E+01    -.47813E+00         .000      .000
    .760     .96945E-03     .11845E-01     .76269E+02     .30296E+01    -.37918E+00         .000      .000
    .770    -.23204E-02     .59409E-02     .42099E+02     .23428E+01    -.28096E+00         .000      .000
    .780    -.47291E-02    -.45136E-03     .52903E+01     .51705E+00    -.20609E+00         .000      .000
    .790    -.65232E-02    -.67928E-02    -.31515E+02    -.86840E+00    -.15494E+00         .000      .000
    .800    -.78057E-02    -.12569E-01    -.66354E+02    -.92349E+00    -.97095E-01         .000      .000
    .810    -.83700E-02    -.17318E-01    -.95513E+02     .24197E-01    -.10961E-01         .000      .000
    .820    -.79360E-02    -.20714E-01    -.11682E+03     .15351E+01     .10173E+00         .000      .000
    .830    -.62560E-02    -.22578E-01    -.13103E+03     .31725E+01     .23798E+00         .000      .000
    .840    -.31486E-02    -.22800E-01    -.13801E+03     .39917E+01     .38219E+00         .000      .000
    .850     .13189E-02    -.21318E-01    -.13620E+03     .33638E+01     .50575E+00         .000      .000
    .860     .67767E-02    -.18152E-01    -.12519E+03     .16565E+01     .57271E+00         .000      .000
    .870     .12503E-01    -.13410E-01    -.10522E+03    -.36205E+00     .55887E+00         .000      .000
    .880     .17706E-01    -.72896E-02    -.76247E+02    -.21559E+01     .47086E+00         .000      .000
    .890     .21690E-01    -.10511E-03    -.37965E+02    -.35099E+01     .31415E+00         .000      .000
    .900     .23807E-01     .76634E-02     .77849E+01    -.40599E+01     .10287E+00         .000      .000
    .910     .23678E-01     .15399E-01     .56683E+02    -.37065E+01    -.12952E+00         .000      .000
    .920     .21212E-01     .22435E-01     .10506E+03    -.30437E+01    -.36348E+00         .000      .000
    .930     .16468E-01     .28103E-01     .14901E+03    -.24611E+01    -.57943E+00         .000      .000
    .940     .98156E-02     .31788E-01     .18371E+03    -.20281E+01    -.73774E+00         .000      .000
    .950     .20681E-02     .33017E-01     .20581E+03    -.17949E+01    -.78975E+00         .000      .000
    .960    -.55189E-02     .31466E-01     .21210E+03    -.12355E+01    -.70347E+00         .000      .000
    .970    -.11693E-01     .26984E-01     .19771E+03     .56049E+00    -.52462E+00         .000      .000
    .980    -.16003E-01     .19690E-01     .15833E+03     .36780E+01    -.34347E+00         .000      .000
    .990    -.18682E-01     .10134E-01     .96019E+02     .61343E+01    -.19924E+00         .000      .000
   1.000    -.20188E-01    -.68324E-03     .23566E+02     .50032E+01    -.11590E+00         .000      .000
   1.010    -.21218E-01    -.11603E-01    -.44738E+02     .52027E+00    -.96847E-01         .000      .000
   1.020    -.22157E-01    -.21620E-01    -.10369E+03    -.35854E+01    -.85757E-01         .000      .000
   1.030    -.22801E-01    -.29943E-01    -.15196E+03    -.42765E+01    -.34461E-01         .000      .000
   1.040    -.22646E-01    -.36030E-01    -.18878E+03    -.96406E+00     .76409E-01         .000      .000
   1.050    -.21074E-01    -.39574E-01    -.21472E+03     .44463E+01     .24566E+00         .000      .000
   1.060    -.17610E-01    -.40406E-01    -.22804E+03     .83659E+01     .45069E+00         .000      .000
   1.070    -.12073E-01    -.38461E-01    -.22573E+03     .83487E+01     .65160E+00         .000      .000
   1.080    -.47500E-02    -.33807E-01    -.20720E+03     .48180E+01     .80148E+00         .000      .000
   1.090     .37556E-02    -.26653E-01    -.17433E+03     .11554E+00     .89205E+00         .000      .000
   1.100     .12989E-01    -.17343E-01    -.12897E+03    -.35504E+01     .95250E+00         .000      .000
   1.110     .22763E-01    -.64057E-02    -.73144E+02    -.48885E+01     .10006E+01         .000      .000
   1.120     .33004E-01     .53995E-02    -.12595E+02    -.34509E+01     .10499E+01         .000      .000
   1.130     .43811E-01     .17203E-01     .45154E+02    -.42676E+00     .11134E+01         .000      .000
   1.140     .55295E-01     .28208E-01     .95845E+02     .17013E+01     .11830E+01         .000      .000
   1.150     .67302E-01     .37769E-01     .13709E+03     .13918E+01     .12018E+01         .000      .000
   1.160     .78896E-01     .45437E-01     .16626E+03    -.10308E+01     .10907E+01         .000      .000
   1.170     .88580E-01     .51028E-01     .18271E+03    -.45672E+01     .81916E+00         .000      .000
   1.180     .94700E-01     .54621E-01     .19150E+03    -.86227E+01     .37424E+00         .000      .000
   1.190     .95636E-01     .56375E-01     .19881E+03    -.12006E+02    -.19853E+00         .000      .000
   1.200     .90643E-01     .56350E-01     .20645E+03    -.13183E+02    -.79694E+00         .000      .000
   1.210     .79761E-01     .54460E-01     .21390E+03    -.11516E+02    -.13759E+01         .000      .000
   1.220     .63263E-01     .50457E-01     .21602E+03    -.69674E+01    -.19137E+01         .000      .000
   1.230     .41816E-01     .44122E-01     .20722E+03    -.15052E+01    -.23542E+01         .000      .000
   1.240     .16587E-01     .35448E-01     .18999E+03     .14054E+01    -.26735E+01         .000      .000
   1.250    -.11247E-01     .24552E-01     .16736E+03     .11533E+01    -.28705E+01         .000      .000
   1.260    -.40339E-01     .11584E-01     .13537E+03     .29586E+00    -.29217E+01         .000      .000
   1.270    -.69146E-01    -.31587E-02     .90798E+02     .90785E+00    -.28123E+01         .000      .000
   1.280    -.96088E-01    -.19218E-01     .33682E+02     .36265E+01    -.25538E+01         .000      .000
   1.290    -.11985E+00    -.36003E-01    -.35170E+02     .78139E+01    -.21851E+01         .000      .000
   1.300    -.13955E+00    -.52754E-01    -.11254E+03     .11606E+02    -.17458E+01         .000      .000
   1.310    -.15465E+00    -.68544E-01    -.19151E+03     .13028E+02    -.12714E+01         .000      .000
   1.320    -.16499E+00    -.82367E-01    -.26392E+03     .11652E+02    -.80030E+00         .000      .000
   1.330    -.17070E+00    -.93281E-01    -.32382E+03     .89437E+01    -.34145E+00         .000      .000
   1.340    -.17188E+00    -.10050E+00    -.36705E+03     .67601E+01     .10101E+00         .000      .000
   1.350    -.16871E+00    -.10348E+00    -.39038E+03     .62075E+01     .53543E+00         .000      .000
   1.360    -.16110E+00    -.10198E+00    -.39282E+03     .72314E+01     .99084E+00         .000      .000
   1.370    -.14887E+00    -.96079E-01    -.37411E+03     .86301E+01     .14516E+01         .000      .000
   1.380    -.13222E+00    -.86140E-01    -.33684E+03     .94846E+01     .18672E+01         .000      .000
   1.390    -.11204E+00    -.72723E-01    -.28570E+03     .90857E+01     .21292E+01         .000      .000
   1.400    -.90599E-01    -.56430E-01    -.22239E+03     .65111E+01     .21009E+01         .000      .000
   1.410    -.70990E-01    -.37855E-01    -.14481E+03     .11078E+01     .17817E+01         .000      .000
   1.420    -.55508E-01    -.17649E-01    -.46359E+02    -.70965E+01     .13001E+01         .000      .000
   1.430    -.45149E-01     .31762E-02     .75443E+02    -.14908E+02     .77230E+00         .000      .000
   1.440    -.39953E-01     .22987E-01     .20431E+03    -.16152E+02     .27912E+00         .000      .000
   1.450    -.39131E-01     .39849E-01     .31459E+03    -.87589E+01    -.84495E-01         .000      .000
   1.460    -.41005E-01     .52116E-01     .39284E+03     .16328E+01    -.25990E+00         .000      .000
   1.470    -.43678E-01     .58646E-01     .43746E+03     .78625E+01    -.24186E+00         .000      .000
   1.480    -.45337E-01     .58798E-01     .44512E+03     .77673E+01    -.72187E-01         .000      .000
   1.490    -.44905E-01     .52521E-01     .41052E+03     .39452E+01     .16367E+00         .000      .000
   1.500    -.42078E-01     .40464E-01     .33181E+03     .32648E+00     .39627E+00         .000      .000
   1.510    -.37115E-01     .23981E-01     .21670E+03    -.13279E+01     .58838E+00         .000      .000
   1.520    -.30451E-01     .49280E-02     .81445E+02    -.14574E+01     .73820E+00         .000      .000
   1.530    -.22535E-01    -.14691E-01    -.57233E+02    -.68265E+00     .83293E+00         .000      .000
   1.540    -.14027E-01    -.32985E-01    -.18761E+03     .95160E+00     .85729E+00         .000      .000
   1.550    -.54747E-02    -.48257E-01    -.30063E+03     .27724E+01     .85554E+00         .000      .000
   1.560     .30345E-02    -.59036E-01    -.38448E+03     .30948E+01     .83855E+00         .000      .000
   1.570     .11002E-01    -.64282E-01    -.42975E+03     .18386E+01     .73377E+00         .000      .000
   1.580     .17341E-01    -.63527E-01    -.43645E+03     .61957E+00     .51876E+00         .000      .000
   1.590     .21118E-01    -.56745E-01    -.40385E+03    -.86277E+00     .22550E+00         .000      .000
   1.600     .21656E-01    -.44383E-01    -.32759E+03    -.35139E+01    -.12595E+00         .000      .000
   1.610     .18573E-01    -.27569E-01    -.21311E+03    -.57230E+01    -.48409E+00         .000      .000
   1.620     .12274E-01    -.80251E-02    -.75359E+02    -.56993E+01    -.75226E+00         .000      .000
   1.630     .39730E-02     .12207E-01     .70598E+02    -.35705E+01    -.88741E+00         .000      .000
   1.640    -.50475E-02     .30950E-01     .20801E+03    -.30043E-02    -.89490E+00         .000      .000
   1.650    -.13458E-01     .46182E-01     .31922E+03     .36350E+01    -.76306E+00         .000      .000
   1.660    -.19962E-01     .56388E-01     .39468E+03     .49812E+01    -.52790E+00         .000      .000
   1.670    -.23908E-01     .60644E-01     .42985E+03     .36614E+01    -.25996E+00         .000      .000
   1.680    -.25277E-01     .58640E-01     .41991E+03     .14770E+01    -.26173E-01         .000      .000
   1.690    -.24703E-01     .50774E-01     .36664E+03    -.42176E+00     .12634E+00         .000      .000
   1.700    -.23066E-01     .38083E-01     .27966E+03    -.18377E+01     .18424E+00         .000      .000
   1.710    -.21368E-01     .22014E-01     .17188E+03    -.27147E+01     .13752E+00         .000      .000
   1.720    -.20578E-01     .41933E-02     .55288E+02    -.26917E+01     .12188E-01         .000      .000
   1.730    -.21245E-01    -.13738E-01    -.59295E+02    -.17951E+01    -.14971E+00         .000      .000
   1.740    -.23619E-01    -.30254E-01    -.16119E+03    -.50136E+00    -.32562E+00         .000      .000
   1.750    -.27629E-01    -.44089E-01    -.24289E+03     .95610E+00    -.46288E+00         .000      .000
   1.760    -.32571E-01    -.54300E-01    -.29908E+03     .21111E+01    -.50882E+00         .000      .000
   1.770    -.37493E-01    -.60332E-01    -.32637E+03     .28841E+01    -.46119E+00         .000      .000
   1.780    -.41546E-01    -.62075E-01    -.32785E+03     .41451E+01    -.33865E+00         .000      .000
   1.790    -.44084E-01    -.59744E-01    -.30875E+03     .57711E+01    -.16169E+00         .000      .000
   1.800    -.44693E-01    -.53738E-01    -.27082E+03     .63467E+01     .40823E-01         .000      .000
   1.810    -.43244E-01    -.44645E-01    -.21554E+03     .51546E+01     .25040E+00         .000      .000
   1.820    -.39606E-01    -.33247E-01    -.14741E+03     .28691E+01     .48394E+00         .000      .000
   1.830    -.33507E-01    -.20470E-01    -.72767E+02     .78943E+00     .73525E+00         .000      .000
