


 TIME HISTORY FOR STORY NO.  6



    TIME   DISPLACEMENT    STORY DRIFT    STORY SHEAR   ACCELERATION     VELOCITY          DAMAGE    DAMAGE
                                                                                          BEAM-SLAB  COL-WALL

    .000     .00000E+00     .00000E+00     .00000E+00     .00000E+00     .00000E+00         .000      .000
    .010    -.15846E-05    -.51100E-09    -.27764E-05     .13381E-03    -.30220E-03         .000      .000
    .020    -.61315E-05    -.88114E-08    -.13538E-02     .73731E-03    -.63906E-03         .000      .000
    .030    -.14400E-04     .84570E-07    -.74857E-02     .22261E-02    -.98669E-03         .000      .000
    .040    -.25881E-04     .74333E-06    -.81765E-02     .16263E-02    -.13405E-02         .000      .000
    .050    -.41202E-04     .22936E-05     .16003E-01    -.45105E-02    -.16923E-02         .000      .000
    .060    -.59632E-04     .41055E-05     .65350E-01    -.14655E-01    -.20137E-02         .000      .000
    .070    -.81537E-04     .47441E-05     .11843E+00    -.24269E-01    -.23520E-02         .000      .000
    .080    -.10690E-03     .28005E-05     .15812E+00    -.30608E-01    -.27578E-02         .000      .000
    .090    -.13708E-03    -.27203E-05     .17345E+00    -.31716E-01    -.32802E-02         .000      .000
    .100    -.17334E-03    -.12173E-04     .15630E+00    -.26235E-01    -.40544E-02         .000      .000
    .110    -.21876E-03    -.24990E-04     .10771E+00    -.15192E-01    -.50048E-02         .000      .000
    .120    -.27291E-03    -.39683E-04     .43588E-01    -.24720E-02    -.57968E-02         .000      .000
    .130    -.33346E-03    -.54277E-04    -.69822E-02     .54270E-02    -.62224E-02         .000      .000
    .140    -.39674E-03    -.67305E-04    -.52161E-02     .14733E-02    -.64635E-02         .000      .000
    .150    -.46228E-03    -.79325E-04     .58024E-01    -.13180E-01    -.65665E-02         .000      .000
    .160    -.52727E-03    -.93147E-04     .13397E+00    -.26425E-01    -.64261E-02         .000      .000
    .170    -.59060E-03    -.11172E-03     .15693E+00    -.27014E-01    -.62257E-02         .000      .000
    .180    -.65148E-03    -.13598E-03     .10788E+00    -.14056E-01    -.59363E-02         .000      .000
    .190    -.70836E-03    -.16487E-03    -.55636E-02     .10541E-01    -.53569E-02         .000      .000
    .200    -.75595E-03    -.19572E-03    -.16827E+00     .42715E-01    -.39778E-02         .000      .000
    .210    -.78421E-03    -.22449E-03    -.33638E+00     .72148E-01    -.14932E-02         .000      .000
    .220    -.78381E-03    -.24738E-03    -.44927E+00     .88010E-01     .15887E-02         .000      .000
    .230    -.75349E-03    -.26315E-03    -.49088E+00     .91956E-01     .43599E-02         .000      .000
    .240    -.70139E-03    -.27337E-03    -.53317E+00     .10256E+00     .57069E-02         .000      .000
    .250    -.64203E-03    -.27894E-03    -.67610E+00     .13668E+00     .62536E-02         .000      .000
    .260    -.57650E-03    -.27582E-03    -.92606E+00     .18738E+00     .67397E-02         .000      .000
    .270    -.50934E-03    -.25475E-03    -.11278E+01     .21663E+00     .65788E-02         .000      .000
    .280    -.44628E-03    -.20781E-03    -.10634E+01     .18667E+00     .60028E-02         .000      .000
    .290    -.39118E-03    -.13618E-03    -.69568E+00     .10324E+00     .48680E-02         .000      .000
    .300    -.35039E-03    -.49276E-04    -.14002E+00    -.90284E-02     .33010E-02         .000      .000
    .310    -.32455E-03     .39977E-04     .50135E+00    -.13267E+00     .19208E-02         .000      .000
    .320    -.31427E-03     .11711E-03     .11285E+01    -.24709E+00    -.13797E-03         .000      .000
    .330    -.33524E-03     .16785E-03     .16176E+01    -.32674E+00    -.45627E-02         .000      .000
    .340    -.41223E-03     .18108E-03     .18194E+01    -.34214E+00    -.10987E-01         .000      .000
    .350    -.55648E-03     .15406E-03     .16200E+01    -.27938E+00    -.17864E-01         .000      .000
    .360    -.77239E-03     .97203E-04     .11490E+01    -.18088E+00    -.25630E-01         .000      .000
    .370    -.10671E-02     .28126E-04     .77925E+00    -.12266E+00    -.32814E-01         .000      .000
    .380    -.14161E-02    -.42748E-04     .73611E+00    -.13146E+00    -.36226E-01         .000      .000
    .390    -.17769E-02    -.11711E-03     .97792E+00    -.19236E+00    -.35247E-01         .000      .000
    .400    -.21100E-02    -.20547E-03     .14403E+01    -.29178E+00    -.30953E-01         .000      .000
    .410    -.23916E-02    -.32818E-03     .18852E+01    -.36504E+00    -.25310E-01         .000      .000
    .420    -.26195E-02    -.50860E-03     .17559E+01    -.29480E+00    -.20631E-01         .000      .000
    .430    -.28118E-02    -.75212E-03     .59319E+00    -.13832E-01    -.18210E-01         .000      .000
    .440    -.29944E-02    -.10305E-02    -.15301E+01     .43104E+00    -.19003E-01         .000      .000
    .450    -.31969E-02    -.12859E-02    -.40067E+01     .89988E+00    -.21358E-01         .000      .000
    .460    -.34214E-02    -.14501E-02    -.59701E+01     .12219E+01    -.23730E-01         .000      .000
    .470    -.36822E-02    -.14698E-02    -.65984E+01     .12515E+01    -.29340E-01         .000      .000
    .480    -.40184E-02    -.13307E-02    -.54288E+01     .93303E+00    -.38005E-01         .000      .000
    .490    -.44411E-02    -.10688E-02    -.27581E+01     .36576E+00    -.46279E-01         .000      .000
    .500    -.49419E-02    -.75486E-03     .62742E+00    -.29578E+00    -.53884E-01         .000      .000
    .510    -.55245E-02    -.47012E-03     .41074E+01    -.94500E+00    -.63171E-01         .000      .000
    .520    -.61981E-02    -.29681E-03     .70410E+01    -.14463E+01    -.70226E-01         .000      .000
    .530    -.68897E-02    -.30425E-03     .85380E+01    -.16339E+01    -.65449E-01         .000      .000
    .540    -.74511E-02    -.51962E-03     .82205E+01    -.14927E+01    -.43936E-01         .000      .000
    .550    -.77128E-02    -.92464E-03     .66695E+01    -.11665E+01    -.57922E-02         .000      .000
    .560    -.75281E-02    -.14905E-02     .43132E+01    -.68802E+00     .44001E-01         .000      .000
    .570    -.68113E-02    -.21921E-02     .58621E+00     .97868E-01     .10027E+00         .000      .000
    .580    -.55187E-02    -.29759E-02    -.52667E+01     .13119E+01     .15776E+00         .000      .000
    .590    -.36638E-02    -.37240E-02    -.13066E+02     .28536E+01     .21289E+00         .000      .000
    .600    -.12505E-02    -.42573E-02    -.21496E+02     .44202E+01     .27102E+00         .000      .000
    .610     .17745E-02    -.43733E-02    -.28638E+02     .56248E+01     .33436E+00         .000      .000
    .620     .54405E-02    -.38972E-02    -.32366E+02     .60668E+01     .39867E+00         .000      .000
    .630     .97175E-02    -.27447E-02    -.31192E+02     .55415E+01     .45385E+00         .000      .000
    .640     .14448E-01    -.96217E-03    -.25433E+02     .42233E+01     .48821E+00         .000      .000
    .650     .19388E-01     .12988E-02    -.16928E+02     .25150E+01     .49475E+00         .000      .000
    .660     .24223E-01     .38509E-02    -.76317E+01     .75826E+00     .46564E+00         .000      .000
    .670     .28559E-01     .65281E-02     .15096E+01    -.92925E+00     .39405E+00         .000      .000
    .680     .31974E-01     .91970E-02     .10480E+02    -.25803E+01     .28352E+00         .000      .000
    .690     .34149E-01     .11745E-01     .19662E+02    -.42937E+01     .14886E+00         .000      .000
    .700     .34910E-01     .14061E-01     .29904E+02    -.62663E+01     .17669E-02         .000      .000
    .710     .34166E-01     .15998E-01     .42203E+02    -.86621E+01    -.15101E+00         .000      .000
    .720     .31913E-01     .17311E-01     .55984E+02    -.11239E+02    -.29678E+00         .000      .000
    .730     .28301E-01     .17674E-01     .68097E+02    -.13287E+02    -.42095E+00         .000      .000
    .740     .23561E-01     .16776E-01     .74539E+02    -.14068E+02    -.52496E+00         .000      .000
    .750     .17841E-01     .14434E-01     .72468E+02    -.13114E+02    -.61734E+00         .000      .000
    .760     .11283E-01     .10655E-01     .60135E+02    -.10144E+02    -.68901E+00         .000      .000
    .770     .41899E-02     .56913E-02     .37250E+02    -.52502E+01    -.72206E+00         .000      .000
    .780    -.29941E-02     .65943E-04     .72762E+01     .65537E+00    -.70631E+00         .000      .000
    .790    -.97545E-02    -.55336E-02    -.22848E+02     .61601E+01    -.63651E+00         .000      .000
    .800    -.15531E-01    -.10480E-01    -.47081E+02     .10281E+02    -.50904E+00         .000      .000
    .810    -.19774E-01    -.14359E-01    -.63096E+02     .12783E+02    -.33338E+00         .000      .000
    .820    -.22110E-01    -.16975E-01    -.71312E+02     .13861E+02    -.13104E+00         .000      .000
    .830    -.22362E-01    -.18314E-01    -.73753E+02     .13992E+02     .81529E-01         .000      .000
    .840    -.20494E-01    -.18456E-01    -.73583E+02     .13808E+02     .29000E+00         .000      .000
    .850    -.16615E-01    -.17468E-01    -.73016E+02     .13610E+02     .48253E+00         .000      .000
    .860    -.10948E-01    -.15333E-01    -.71450E+02     .13134E+02     .64340E+00         .000      .000
    .870    -.39072E-02    -.11997E-01    -.66330E+02     .11846E+02     .75607E+00         .000      .000
    .880     .39920E-02    -.74649E-02    -.55120E+02     .93141E+01     .81440E+00         .000      .000
    .890     .12159E-01    -.18760E-02    -.36501E+02     .53634E+01     .80623E+00         .000      .000
    .900     .19865E-01     .44605E-02    -.10416E+02     .61045E-01     .72267E+00         .000      .000
    .910     .26374E-01     .11053E-01     .21332E+02    -.61208E+01     .56790E+00         .000      .000
    .920     .30997E-01     .17272E-01     .54705E+02    -.12327E+02     .34576E+00         .000      .000
    .930     .33118E-01     .22462E-01     .85218E+02    -.17743E+02     .72500E-01         .000      .000
    .940     .32401E-01     .26049E-01     .10932E+03    -.21767E+02    -.21443E+00         .000      .000
    .950     .28946E-01     .27608E-01     .12461E+03    -.24043E+02    -.46632E+00         .000      .000
    .960     .23320E-01     .26891E-01     .13037E+03    -.24549E+02    -.64464E+00         .000      .000
    .970     .16241E-01     .23807E-01     .12686E+03    -.23312E+02    -.76672E+00         .000      .000
    .980     .80106E-02     .18365E-01     .11276E+03    -.19916E+02    -.88107E+00         .000      .000
    .990    -.13653E-02     .10723E-01     .83966E+02    -.13456E+02    -.99049E+00         .000      .000
   1.000    -.11675E-01     .13885E-02     .37297E+02    -.36125E+01    -.10627E+01         .000      .000
   1.010    -.22327E-01    -.85974E-02    -.21556E+02     .78764E+01    -.10480E+01         .000      .000
   1.020    -.32182E-01    -.17845E-01    -.77441E+02     .17807E+02    -.89865E+00         .000      .000
   1.030    -.39887E-01    -.25134E-01    -.11572E+03     .23725E+02    -.62628E+00         .000      .000
   1.040    -.44488E-01    -.29834E-01    -.13070E+03     .25167E+02    -.28788E+00         .000      .000
   1.050    -.45629E-01    -.31992E-01    -.12738E+03     .23659E+02     .56147E-01         .000      .000
   1.060    -.43463E-01    -.32068E-01    -.11754E+03     .21618E+02     .37159E+00         .000      .000
   1.070    -.38304E-01    -.30492E-01    -.11103E+03     .20572E+02     .65518E+00         .000      .000
   1.080    -.30446E-01    -.27373E-01    -.10917E+03     .20253E+02     .91227E+00         .000      .000
   1.090    -.20110E-01    -.22540E-01    -.10565E+03     .19166E+02     .11534E+01         .000      .000
   1.100    -.74189E-02    -.15823E-01    -.92293E+02     .15822E+02     .13819E+01         .000      .000
   1.110     .73969E-02    -.73323E-02    -.64261E+02     .95759E+01     .15711E+01         .000      .000
   1.120     .23752E-01     .23966E-02    -.22379E+02     .95437E+00     .16855E+01         .000      .000
   1.130     .40779E-01     .12430E-01     .25873E+02    -.82592E+01     .17023E+01         .000      .000
   1.140     .57464E-01     .21685E-01     .68878E+02    -.15788E+02     .16197E+01         .000      .000
   1.150     .72840E-01     .29292E-01     .97346E+02    -.20161E+02     .14378E+01         .000      .000
   1.160     .85882E-01     .34831E-01     .10868E+03    -.21276E+02     .11543E+01         .000      .000
   1.170     .95653E-01     .38337E-01     .10604E+03    -.19971E+02     .78853E+00         .000      .000
   1.180     .10143E+00     .40153E-01     .95398E+02    -.17503E+02     .35553E+00         .000      .000
   1.190     .10265E+00     .40770E-01     .84566E+02    -.15456E+02    -.11128E+00         .000      .000
   1.200     .99243E-01     .40592E-01     .81044E+02    -.15137E+02    -.56679E+00         .000      .000
   1.210     .91329E-01     .39719E-01     .88116E+02    -.16878E+02    -.10184E+01         .000      .000
   1.220     .78811E-01     .37876E-01     .10346E+03    -.19892E+02    -.14887E+01         .000      .000
   1.230     .61553E-01     .34495E-01     .11847E+03    -.22220E+02    -.19589E+01         .000      .000
   1.240     .39761E-01     .29028E-01     .12182E+03    -.21824E+02    -.23902E+01         .000      .000
   1.250     .14054E-01     .21332E-01     .10894E+03    -.18422E+02    -.27303E+01         .000      .000
   1.260    -.14366E-01     .11736E-01     .84681E+02    -.13336E+02    -.29273E+01         .000      .000
   1.270    -.43961E-01     .78114E-03     .56374E+02    -.78966E+01    -.29654E+01         .000      .000
   1.280    -.73210E-01    -.11035E-01     .28123E+02    -.26318E+01    -.28643E+01         .000      .000
   1.290    -.10091E+00    -.23357E-01    -.62001E+00     .28342E+01    -.26619E+01         .000      .000
   1.300    -.12619E+00    -.35889E-01    -.33962E+02     .94089E+01    -.23813E+01         .000      .000
   1.310    -.14827E+00    -.48203E-01    -.75615E+02     .17636E+02    -.20217E+01         .000      .000
   1.320    -.16633E+00    -.59572E-01    -.12416E+03     .26876E+02    -.15757E+01         .000      .000
   1.330    -.17946E+00    -.69007E-01    -.17190E+03     .35383E+02    -.10328E+01         .000      .000
   1.340    -.18672E+00    -.75507E-01    -.20877E+03     .41273E+02    -.41058E+00         .000      .000
   1.350    -.18752E+00    -.78358E-01    -.22737E+03     .43394E+02     .25625E+00         .000      .000
   1.360    -.18155E+00    -.77313E-01    -.22571E+03     .41725E+02     .93646E+00         .000      .000
   1.370    -.16892E+00    -.72589E-01    -.20740E+03     .37207E+02     .15797E+01         .000      .000
   1.380    -.15026E+00    -.64713E-01    -.17835E+03     .31037E+02     .21317E+01         .000      .000
   1.390    -.12684E+00    -.54345E-01    -.14459E+03     .24368E+02     .25172E+01         .000      .000
   1.400    -.10074E+00    -.42113E-01    -.11100E+03     .18044E+02     .26586E+01         .000      .000
   1.410    -.74413E-01    -.28478E-01    -.79210E+02     .12136E+02     .25766E+01         .000      .000
   1.420    -.49606E-01    -.13689E-01    -.45835E+02     .56122E+01     .23733E+01         .000      .000
   1.430    -.27120E-01     .20937E-02    -.72600E+00    -.38466E+01     .21172E+01         .000      .000
   1.440    -.74746E-02     .18377E-01     .68064E+02    -.18237E+02     .17972E+01         .000      .000
   1.450     .84815E-02     .33802E-01     .15891E+03    -.36086E+02     .13757E+01         .000      .000
   1.460     .19650E-01     .46183E-01     .24903E+03    -.52089E+02     .83965E+00         .000      .000
   1.470     .25075E-01     .53337E-01     .30855E+03    -.60804E+02     .24516E+00         .000      .000
   1.480     .24682E-01     .54018E-01     .32040E+03    -.60065E+02    -.31074E+00         .000      .000
   1.490     .19223E-01     .48279E-01     .28648E+03    -.51206E+02    -.75881E+00         .000      .000
   1.500     .99785E-02     .37206E-01     .22057E+03    -.37209E+02    -.10663E+01         .000      .000
   1.510    -.16169E-02     .22399E-01     .13750E+03    -.20734E+02    -.12287E+01         .000      .000
   1.520    -.14102E-01     .56018E-02     .48094E+02    -.36279E+01    -.12438E+01         .000      .000
   1.530    -.26057E-01    -.11476E-01    -.39480E+02     .12653E+02    -.11288E+01         .000      .000
   1.540    -.36342E-01    -.27266E-01    -.11835E+03     .26907E+02    -.91360E+00         .000      .000
   1.550    -.43993E-01    -.40451E-01    -.18417E+03     .38489E+02    -.59782E+00         .000      .000
   1.560    -.48018E-01    -.49982E-01    -.23518E+03     .47131E+02    -.19819E+00         .000      .000
   1.570    -.47903E-01    -.55022E-01    -.26820E+03     .52082E+02     .21726E+00         .000      .000
   1.580    -.43792E-01    -.55013E-01    -.27796E+03     .52383E+02     .59679E+00         .000      .000
   1.590    -.36180E-01    -.49844E-01    -.26251E+03     .47949E+02     .91268E+00         .000      .000
   1.600    -.25842E-01    -.39855E-01    -.22300E+03     .39030E+02     .11377E+01         .000      .000
   1.610    -.13758E-01    -.25776E-01    -.15936E+03     .25549E+02     .12634E+01         .000      .000
   1.620    -.87690E-03    -.88188E-02    -.73252E+02     .80891E+01     .12990E+01         .000      .000
   1.630     .11858E-01     .92870E-02     .27201E+02    -.11433E+02     .12264E+01         .000      .000
   1.640     .23212E-01     .26478E-01     .12882E+03    -.30309E+02     .10232E+01         .000      .000
   1.650     .31961E-01     .40668E-01     .21596E+03    -.45486E+02     .71282E+00         .000      .000
   1.660     .37226E-01     .50142E-01     .27364E+03    -.54340E+02     .33036E+00         .000      .000
   1.670     .38466E-01     .53935E-01     .29435E+03    -.56031E+02    -.82837E-01         .000      .000
   1.680     .35590E-01     .51946E-01     .28025E+03    -.51408E+02    -.49010E+00         .000      .000
   1.690     .28775E-01     .44759E-01     .23808E+03    -.41884E+02    -.86448E+00         .000      .000
   1.700     .18512E-01     .33437E-01     .17571E+03    -.29005E+02    -.11760E+01         .000      .000
   1.710     .55185E-02     .19345E-01     .10170E+03    -.14444E+02    -.14091E+01         .000      .000
   1.720    -.93371E-02     .39782E-02     .24960E+02     .10653E+00    -.15432E+01         .000      .000
   1.730    -.24967E-01    -.11220E-01    -.46859E+02     .13314E+02    -.15644E+01         .000      .000
   1.740    -.40274E-01    -.24991E-01    -.10841E+03     .24275E+02    -.14806E+01         .000      .000
   1.750    -.54205E-01    -.36328E-01    -.15594E+03     .32357E+02    -.12851E+01         .000      .000
   1.760    -.65591E-01    -.44515E-01    -.18740E+03     .37266E+02    -.97425E+00         .000      .000
   1.770    -.73399E-01    -.49139E-01    -.20171E+03     .38824E+02    -.57627E+00         .000      .000
   1.780    -.76980E-01    -.50098E-01    -.19822E+03     .36998E+02    -.13753E+00         .000      .000
   1.790    -.76175E-01    -.47651E-01    -.17924E+03     .32484E+02     .29390E+00         .000      .000
   1.800    -.71254E-01    -.42335E-01    -.15051E+03     .26485E+02     .68044E+00         .000      .000
   1.810    -.62758E-01    -.34776E-01    -.11710E+03     .19817E+02     .10099E+01         .000      .000
   1.820    -.51195E-01    -.25568E-01    -.80676E+02     .12612E+02     .12974E+01         .000      .000
   1.830    -.36972E-01    -.15291E-01    -.40754E+02     .47222E+01     .15360E+01         .000      .000
