


 TIME HISTORY FOR STORY NO.  3



    TIME   DISPLACEMENT    STORY DRIFT    STORY SHEAR   ACCELERATION     VELOCITY          DAMAGE    DAMAGE
                                                                                          BEAM-SLAB  COL-WALL

    .000     .00000E+00     .00000E+00     .00000E+00     .00000E+00     .00000E+00         .000      .000
    .010    -.87330E-06     .18011E-07     .45471E-02    -.12241E-02    -.16887E-03         .000      .000
    .020    -.34873E-05    -.15739E-06     .19575E-01    -.17626E-02    -.37282E-03         .000      .000
    .030    -.83202E-05    -.10973E-05     .24812E-01     .15315E-02    -.57439E-03         .000      .000
    .040    -.14842E-04    -.30976E-05     .10224E-01     .70387E-02    -.73703E-03         .000      .000
    .050    -.22840E-04    -.60050E-05    -.14707E-01     .10411E-01    -.83456E-03         .000      .000
    .060    -.31225E-04    -.96443E-05    -.47395E-01     .13667E-01    -.83863E-03         .000      .000
    .070    -.39351E-04    -.13682E-04    -.88029E-01     .16277E-01    -.76499E-03         .000      .000
    .080    -.46433E-04    -.17558E-04    -.12314E+00     .17686E-01    -.66355E-03         .000      .000
    .090    -.52756E-04    -.20799E-04    -.13743E+00     .16504E-01    -.60278E-03         .000      .000
    .100    -.59047E-04    -.23414E-04    -.12624E+00     .14456E-01    -.70873E-03         .000      .000
    .110    -.67492E-04    -.25923E-04    -.91276E-01     .11783E-01    -.98238E-03         .000      .000
    .120    -.78654E-04    -.29474E-04    -.59525E-01     .14421E-01    -.12417E-02         .000      .000
    .130    -.91673E-04    -.35002E-04    -.68976E-01     .21383E-01    -.13079E-02         .000      .000
    .140    -.10429E-03    -.42318E-04    -.12205E+00     .26352E-01    -.12204E-02         .000      .000
    .150    -.11562E-03    -.50255E-04    -.18241E+00     .23010E-01    -.99541E-03         .000      .000
    .160    -.12363E-03    -.57814E-04    -.23783E+00     .19425E-01    -.59709E-03         .000      .000
    .170    -.12742E-03    -.63903E-04    -.28385E+00     .15406E-01    -.15793E-03         .000      .000
    .180    -.12696E-03    -.67308E-04    -.28061E+00     .68177E-02     .23203E-03         .000      .000
    .190    -.12293E-03    -.67895E-04    -.22091E+00    -.36198E-02     .57773E-03         .000      .000
    .200    -.11478E-03    -.66602E-04    -.14353E+00    -.10698E-01     .11103E-02         .000      .000
    .210    -.99450E-04    -.64209E-04    -.10055E+00    -.14392E-01     .20231E-02         .000      .000
    .220    -.73847E-04    -.59959E-04    -.93059E-01    -.25495E-01     .30729E-02         .000      .000
    .230    -.39371E-04    -.51938E-04    -.51917E-01    -.53535E-01     .37092E-02         .000      .000
    .240    -.34761E-05    -.39366E-04     .80820E-01    -.89011E-01     .32088E-02         .000      .000
    .250     .21844E-04    -.24142E-04     .31124E+00    -.11361E+00     .18300E-02         .000      .000
    .260     .31996E-04    -.11128E-04     .50420E+00    -.99419E-01     .11674E-03         .000      .000
    .270     .23079E-04    -.39033E-05     .57632E+00    -.70827E-01    -.19408E-02         .000      .000
    .280    -.67511E-05    -.41763E-05     .57069E+00    -.46622E-01    -.39744E-02         .000      .000
    .290    -.55383E-04    -.14088E-04     .41909E+00    -.90595E-02    -.56954E-02         .000      .000
    .300    -.11813E-03    -.33383E-04     .88782E-01     .41123E-01    -.66628E-02         .000      .000
    .310    -.18432E-03    -.58445E-04    -.35674E+00     .97100E-01    -.63400E-02         .000      .000
    .320    -.24218E-03    -.83415E-04    -.81531E+00     .14144E+00    -.52015E-02         .000      .000
    .330    -.28996E-03    -.10192E-03    -.10868E+01     .14795E+00    -.45470E-02         .000      .000
    .340    -.33617E-03    -.11235E-03    -.10383E+01     .13306E+00    -.47913E-02         .000      .000
    .350    -.38721E-03    -.12060E-03    -.83467E+00     .14667E+00    -.54506E-02         .000      .000
    .360    -.44740E-03    -.13383E-03    -.68744E+00     .18078E+00    -.67896E-02         .000      .000
    .370    -.52265E-03    -.15618E-03    -.57623E+00     .19376E+00    -.80272E-02         .000      .000
    .380    -.60100E-03    -.19242E-03    -.67014E+00     .22303E+00    -.71682E-02         .000      .000
    .390    -.65595E-03    -.24145E-03    -.12015E+01     .26478E+00    -.33146E-02         .000      .000
    .400    -.65909E-03    -.28893E-03    -.19201E+01     .24839E+00     .29761E-02         .000      .000
    .410    -.59428E-03    -.31529E-03    -.23484E+01     .14437E+00     .99135E-02         .000      .000
    .420    -.46698E-03    -.30707E-03    -.21649E+01    -.17366E-01     .15019E-01         .000      .000
    .430    -.30699E-03    -.26252E-03    -.12576E+01    -.19200E+00     .16220E-01         .000      .000
    .440    -.16064E-03    -.19400E-03     .23700E+00    -.33531E+00     .12023E-01         .000      .000
    .450    -.81895E-04    -.12637E-03     .19526E+01    -.41986E+00     .32343E-02         .000      .000
    .460    -.10455E-03    -.91512E-04     .32064E+01    -.39438E+00    -.81172E-02         .000      .000
    .470    -.25105E-03    -.11311E-03     .34676E+01    -.29100E+00    -.21537E-01         .000      .000
    .480    -.53428E-03    -.19869E-03     .27959E+01    -.15569E+00    -.34650E-01         .000      .000
    .490    -.92908E-03    -.34655E-03     .11409E+01     .81588E-01    -.43255E-01         .000      .000
    .500    -.13771E-02    -.53949E-03    -.14636E+01     .39600E+00    -.45227E-01         .000      .000
    .510    -.18147E-02    -.74091E-03    -.42277E+01     .64082E+00    -.41586E-01         .000      .000
    .520    -.21881E-02    -.91442E-03    -.62277E+01     .76253E+00    -.31725E-01         .000      .000
    .530    -.24177E-02    -.10419E-02    -.75114E+01     .87409E+00    -.12391E-01         .000      .000
    .540    -.24016E-02    -.11075E-02    -.85006E+01     .93911E+00     .17181E-01         .000      .000
    .550    -.20496E-02    -.10802E-02    -.87889E+01     .74923E+00     .54017E-01         .000      .000
    .560    -.13192E-02    -.92748E-03    -.76862E+01     .22351E+00     .91458E-01         .000      .000
    .570    -.24221E-03    -.63273E-03    -.48436E+01    -.54869E+00     .12245E+00         .000      .000
    .580     .10862E-02    -.20270E-03    -.35925E+00    -.13875E+01     .14047E+00         .000      .000
    .590     .25098E-02     .33291E-03     .54969E+01    -.21892E+01     .14132E+00         .000      .000
    .600     .38646E-02     .91713E-03     .11978E+02    -.28131E+01     .12787E+00         .000      .000
    .610     .50353E-02     .14742E-02     .17371E+02    -.31031E+01     .10491E+00         .000      .000
    .620     .59441E-02     .19467E-02     .20460E+02    -.31371E+01     .76316E-01         .000      .000
    .630     .65477E-02     .23109E-02     .21085E+02    -.29944E+01     .43530E-01         .000      .000
    .640     .68016E-02     .25687E-02     .19723E+02    -.26844E+01     .68097E-02         .000      .000
    .650     .66757E-02     .27324E-02     .17041E+02    -.21114E+01    -.32324E-01         .000      .000
    .660     .61463E-02     .28129E-02     .13638E+02    -.12488E+01    -.74105E-01         .000      .000
    .670     .51799E-02     .28106E-02     .10283E+02    -.19767E+00    -.12001E+00         .000      .000
    .680     .37431E-02     .26969E-02     .71888E+01     .10210E+01    -.16680E+00         .000      .000
    .690     .18755E-02     .24136E-02     .31381E+01     .25247E+01    -.20410E+00         .000      .000
    .700    -.27381E-03     .19171E-02    -.34591E+01     .42222E+01    -.22199E+00         .000      .000
    .710    -.24800E-02     .12268E-02    -.12508E+02     .57173E+01    -.21476E+00         .000      .000
    .720    -.44678E-02     .42227E-03    -.22543E+02     .67421E+01    -.17724E+00         .000      .000
    .730    -.59159E-02    -.38139E-03    -.32184E+02     .72763E+01    -.10712E+00         .000      .000
    .740    -.65390E-02    -.10366E-02    -.39441E+02     .71302E+01    -.15780E-01         .000      .000
    .750    -.62325E-02    -.13924E-02    -.40812E+02     .59743E+01     .75213E-01         .000      .000
    .760    -.50866E-02    -.13819E-02    -.34160E+02     .40188E+01     .15086E+00         .000      .000
    .770    -.32874E-02    -.10671E-02    -.21449E+02     .18904E+01     .20507E+00         .000      .000
    .780    -.10668E-02    -.57633E-03    -.62436E+01    -.20363E+00     .23478E+00         .000      .000
    .790     .13300E-02    -.38625E-04     .88605E+01    -.23589E+01     .24102E+00         .000      .000
    .800     .36986E-02     .43541E-03     .21409E+02    -.44219E+01     .23086E+00         .000      .000
    .810     .59113E-02     .78573E-03     .29196E+02    -.61274E+01     .20999E+00         .000      .000
    .820     .78639E-02     .10414E-02     .32564E+02    -.75046E+01     .17875E+00         .000      .000
    .830     .94538E-02     .12867E-02     .34003E+02    -.85519E+01     .13781E+00         .000      .000
    .840     .10587E-01     .15865E-02     .35221E+02    -.90414E+01     .87173E-01         .000      .000
    .850     .11166E-01     .19561E-02     .36766E+02    -.88728E+01     .27264E-01         .000      .000
    .860     .11097E-01     .23537E-02     .38280E+02    -.80549E+01    -.43302E-01         .000      .000
    .870     .10264E-01     .26896E-02     .38748E+02    -.66946E+01    -.12465E+00         .000      .000
    .880     .85946E-02     .28424E-02     .36353E+02    -.47198E+01    -.20882E+00         .000      .000
    .890     .61032E-02     .27036E-02     .28897E+02    -.20943E+01    -.28847E+00         .000      .000
    .900     .28671E-02     .22355E-02     .16363E+02     .85855E+00    -.35572E+00         .000      .000
    .910    -.93390E-03     .14641E-02     .21403E+00     .39593E+01    -.39984E+00         .000      .000
    .920    -.50337E-02     .45801E-03    -.18018E+02     .70628E+01    -.41526E+00         .000      .000
    .930    -.91262E-02    -.67776E-03    -.35845E+02     .98308E+01    -.39695E+00         .000      .000
    .940    -.12826E-01    -.18375E-02    -.51278E+02     .12107E+02    -.33484E+00         .000      .000
    .950    -.15635E-01    -.29242E-02    -.63992E+02     .13743E+02    -.21656E+00         .000      .000
    .960    -.16960E-01    -.38105E-02    -.73761E+02     .14307E+02    -.39121E-01         .000      .000
    .970    -.16330E-01    -.43095E-02    -.78355E+02     .13080E+02     .16444E+00         .000      .000
    .980    -.13778E-01    -.42220E-02    -.72233E+02     .94929E+01     .33586E+00         .000      .000
    .990    -.98425E-02    -.35024E-02    -.51968E+02     .44624E+01     .43894E+00         .000      .000
   1.000    -.52480E-02    -.23503E-02    -.22182E+02    -.18720E+00     .46797E+00         .000      .000
   1.010    -.66146E-03    -.10813E-02     .94478E+01    -.38287E+01     .44355E+00         .000      .000
   1.020     .35616E-02     .80142E-05     .36094E+02    -.66443E+01     .40063E+00         .000      .000
   1.030     .73438E-02     .73784E-03     .52274E+02    -.90441E+01     .35530E+00         .000      .000
   1.040     .10641E-01     .11276E-02     .57810E+02    -.11496E+02     .30208E+00         .000      .000
   1.050     .13319E-01     .13454E-02     .57031E+02    -.13718E+02     .22922E+00         .000      .000
   1.060     .15149E-01     .15824E-02     .54795E+02    -.14966E+02     .13351E+00         .000      .000
   1.070     .15943E-01     .19506E-02     .54067E+02    -.14714E+02     .23970E-01         .000      .000
   1.080     .15624E-01     .24378E-02     .55054E+02    -.13054E+02    -.86935E-01         .000      .000
   1.090     .14259E-01     .29184E-02     .55431E+02    -.10402E+02    -.18163E+00         .000      .000
   1.100     .12109E-01     .32160E-02     .50519E+02    -.70043E+01    -.24123E+00         .000      .000
   1.110     .95709E-02     .32337E-02     .36780E+02    -.32926E+01    -.26002E+00         .000      .000
   1.120     .70292E-02     .30471E-02     .16091E+02     .61888E-01    -.24281E+00         .000      .000
   1.130     .48055E-02     .28495E-02    -.62278E+01     .28764E+01    -.19836E+00         .000      .000
   1.140     .31229E-02     .28478E-02    -.24888E+02     .52640E+01    -.13563E+00         .000      .000
   1.150     .20952E-02     .31839E-02    -.35918E+02     .72237E+01    -.72273E-01         .000      .000
   1.160     .15953E-02     .38782E-02    -.36667E+02     .84269E+01    -.33624E-01         .000      .000
   1.170     .12974E-02     .47704E-02    -.27930E+02     .90200E+01    -.32344E-01         .000      .000
   1.180     .80746E-03     .55383E-02    -.15825E+02     .96017E+01    -.73143E-01         .000      .000
   1.190    -.24949E-03     .58458E-02    -.67662E+01     .10296E+02    -.13911E+00         .000      .000
   1.200    -.19490E-02     .54545E-02    -.59887E+01     .11304E+02    -.19734E+00         .000      .000
   1.210    -.41403E-02     .43291E-02    -.15501E+02     .12198E+02    -.23915E+00         .000      .000
   1.220    -.67058E-02     .26659E-02    -.29676E+02     .12092E+02    -.27325E+00         .000      .000
   1.230    -.95715E-02     .71627E-03    -.41674E+02     .11326E+02    -.29687E+00         .000      .000
   1.240    -.12575E-01    -.13508E-02    -.49831E+02     .10822E+02    -.30005E+00         .000      .000
   1.250    -.15456E-01    -.34140E-02    -.53806E+02     .10393E+02    -.26843E+00         .000      .000
   1.260    -.17784E-01    -.53863E-02    -.53645E+02     .94726E+01    -.18891E+00         .000      .000
   1.270    -.19087E-01    -.72038E-02    -.51097E+02     .75592E+01    -.65652E-01         .000      .000
   1.280    -.19026E-01    -.87684E-02    -.46827E+02     .43250E+01     .78723E-01         .000      .000
   1.290    -.17555E-01    -.99390E-02    -.39155E+02    -.13209E+00     .21068E+00         .000      .000
   1.300    -.14941E-01    -.10594E-01    -.25608E+02    -.52224E+01     .30442E+00         .000      .000
   1.310    -.11626E-01    -.10707E-01    -.58738E+01    -.10066E+02     .35053E+00         .000      .000
   1.320    -.80831E-02    -.10369E-01     .17626E+02    -.14095E+02     .35100E+00         .000      .000
   1.330    -.47137E-02    -.97458E-02     .41058E+02    -.17177E+02     .31931E+00         .000      .000
   1.340    -.17713E-02    -.90283E-02     .59464E+02    -.19224E+02     .26531E+00         .000      .000
   1.350     .54642E-03    -.83464E-02     .69681E+02    -.20397E+02     .19746E+00         .000      .000
   1.360     .21765E-02    -.77382E-02     .70810E+02    -.20492E+02     .12932E+00         .000      .000
   1.370     .31408E-02    -.71439E-02     .63720E+02    -.19421E+02     .63501E-01         .000      .000
   1.380     .34298E-02    -.64256E-02     .52918E+02    -.17552E+02    -.74386E-02         .000      .000
   1.390     .28810E-02    -.54827E-02     .43519E+02    -.15030E+02    -.11167E+00         .000      .000
   1.400     .96501E-03    -.43650E-02     .39214E+02    -.11882E+02    -.28515E+00         .000      .000
   1.410    -.29951E-02    -.33685E-02     .38961E+02    -.73080E+01    -.50998E+00         .000      .000
   1.420    -.91481E-02    -.30033E-02     .31706E+02     .87074E-01    -.70864E+00         .000      .000
   1.430    -.16832E-01    -.36540E-02     .53026E+01     .95280E+01    -.80759E+00         .000      .000
   1.440    -.24888E-01    -.52615E-02    -.39715E+02     .18086E+02    -.78419E+00         .000      .000
   1.450    -.32161E-01    -.73804E-02    -.91841E+02     .23793E+02    -.65465E+00         .000      .000
   1.460    -.37727E-01    -.94390E-02    -.13897E+03     .27043E+02    -.44853E+00         .000      .000
   1.470    -.40928E-01    -.10906E-01    -.17131E+03     .28636E+02    -.18121E+00         .000      .000
   1.480    -.41178E-01    -.11403E-01    -.18246E+03     .28700E+02     .13767E+00         .000      .000
   1.490    -.38105E-01    -.10766E-01    -.17021E+03     .26265E+02     .47715E+00         .000      .000
   1.500    -.31726E-01    -.90779E-02    -.13656E+03     .20670E+02     .78941E+00         .000      .000
   1.510    -.22566E-01    -.66352E-02    -.88763E+02     .12562E+02     .10273E+01         .000      .000
   1.520    -.11516E-01    -.38231E-02    -.36289E+02     .33350E+01     .11652E+01         .000      .000
   1.530     .35848E-03    -.96193E-03     .13477E+02    -.58665E+01     .11897E+01         .000      .000
   1.540     .11881E-01     .17603E-02     .58368E+02    -.14563E+02     .10953E+01         .000      .000
   1.550     .21939E-01     .42066E-02     .98027E+02    -.21905E+02     .90386E+00         .000      .000
   1.560     .29721E-01     .62138E-02     .12857E+03    -.26655E+02     .64175E+00         .000      .000
   1.570     .34564E-01     .76641E-02     .14780E+03    -.28894E+02     .31630E+00         .000      .000
   1.580     .35894E-01     .84704E-02     .15734E+03    -.28916E+02    -.54943E-01         .000      .000
   1.590     .33433E-01     .84678E-02     .15479E+03    -.25935E+02    -.43539E+00         .000      .000
   1.600     .27297E-01     .74977E-02     .13542E+03    -.19753E+02    -.78275E+00         .000      .000
   1.610     .18050E-01     .55537E-02     .98980E+02    -.11303E+02    -.10491E+01         .000      .000
   1.620     .67421E-02     .27967E-02     .48290E+02    -.16108E+01    -.11880E+01         .000      .000
   1.630    -.52370E-02    -.44773E-03    -.12060E+02     .81747E+01    -.11855E+01         .000      .000
   1.640    -.16544E-01    -.36956E-02    -.72416E+02     .16517E+02    -.10564E+01         .000      .000
   1.650    -.26001E-01    -.64584E-02    -.12210E+03     .22797E+02    -.81834E+00         .000      .000
   1.660    -.32644E-01    -.83884E-02    -.15554E+03     .27014E+02    -.50051E+00         .000      .000
   1.670    -.35873E-01    -.92818E-02    -.16937E+03     .28561E+02    -.14138E+00         .000      .000
   1.680    -.35488E-01    -.91059E-02    -.16243E+03     .27094E+02     .21283E+00         .000      .000
   1.690    -.31785E-01    -.80135E-02    -.13742E+03     .22799E+02     .51650E+00         .000      .000
   1.700    -.25431E-01    -.62954E-02    -.10016E+03     .16514E+02     .73883E+00         .000      .000
   1.710    -.17348E-01    -.42869E-02    -.57533E+02     .91706E+01     .85959E+00         .000      .000
   1.720    -.85802E-02    -.22817E-02    -.14465E+02     .14553E+01     .87830E+00         .000      .000
   1.730    -.83883E-04    -.51841E-03     .24768E+02    -.57684E+01     .80697E+00         .000      .000
   1.740     .73045E-02     .84136E-03     .56975E+02    -.11945E+02     .65944E+00         .000      .000
   1.750     .12950E-01     .17145E-02     .80998E+02    -.16660E+02     .46567E+00         .000      .000
   1.760     .16585E-01     .20619E-02     .94715E+02    -.19307E+02     .26224E+00         .000      .000
   1.770     .18240E-01     .19307E-02     .97118E+02    -.20076E+02     .72063E-01         .000      .000
   1.780     .18100E-01     .14660E-02     .91005E+02    -.19610E+02    -.96146E-01         .000      .000
   1.790     .16395E-01     .82608E-03     .79833E+02    -.18098E+02    -.24073E+00         .000      .000
   1.800     .13371E-01     .12001E-03     .65394E+02    -.15378E+02    -.35956E+00         .000      .000
   1.810     .93273E-02    -.59147E-03     .48509E+02    -.11481E+02    -.44157E+00         .000      .000
   1.820     .47367E-02    -.12783E-02     .29122E+02    -.66702E+01    -.46479E+00         .000      .000
   1.830     .24850E-03    -.18962E-02     .66848E+01    -.15925E+01    -.42333E+00         .000      .000
