


 TIME HISTORY FOR STORY NO.  6



    TIME   DISPLACEMENT    STORY DRIFT    STORY SHEAR   ACCELERATION     VELOCITY          DAMAGE    DAMAGE
                                                                                          BEAM-SLAB  COL-WALL

    .000     .00000E+00     .00000E+00     .00000E+00     .00000E+00     .00000E+00         .000      .000
    .010    -.15350E-05    -.87114E-09    -.14113E-04     .17980E-04    -.13400E-04         .000      .000
    .020    -.28102E-06    -.34100E-08    -.16849E-02     .51415E-03    -.52695E-04         .000      .000
    .030    -.25492E-05     .13241E-06    -.55665E-03    -.28505E-03    -.82178E-04         .000      .000
    .040    -.20674E-05     .30094E-06     .75332E-02    -.15402E-02    -.15155E-03         .000      .000
    .050    -.57751E-05     .20154E-06     .52314E-02    -.68422E-03    -.28123E-03         .000      .000
    .060    -.79301E-05     .34170E-07     .31690E-02    -.27045E-03    -.48127E-03         .000      .000
    .070    -.15467E-04    -.61275E-07     .20867E-02    -.24993E-03    -.70299E-03         .000      .000
    .080    -.22144E-04     .18393E-07     .77202E-02    -.14057E-02    -.96934E-03         .000      .000
    .090    -.35020E-04     .21565E-06     .17139E-01    -.36115E-02    -.12873E-02         .000      .000
    .100    -.48208E-04     .38213E-06     .38414E-01    -.78657E-02    -.16984E-02         .000      .000
    .110    -.69247E-04    -.25261E-07     .61015E-01    -.12054E-01    -.21884E-02         .000      .000
    .120    -.92327E-04    -.15165E-05     .84061E-01    -.15895E-01    -.27817E-02         .000      .000
    .130    -.12507E-03    -.45621E-05     .99339E-01    -.18354E-01    -.34324E-02         .000      .000
    .140    -.16109E-03    -.93697E-05     .11385E+00    -.20630E-01    -.41151E-02         .000      .000
    .150    -.20573E-03    -.16186E-04     .12333E+00    -.22388E-01    -.43089E-02         .000      .000
    .160    -.24679E-03    -.25147E-04     .13667E+00    -.25116E-01    -.43581E-02         .000      .000
    .170    -.29611E-03    -.36706E-04     .15528E+00    -.28839E-01    -.53722E-02         .000      .000
    .180    -.35729E-03    -.52048E-04     .16534E+00    -.27453E-01    -.72942E-02         .000      .000
    .190    -.44289E-03    -.72212E-04     .89902E-01    -.64015E-02    -.94845E-02         .000      .000
    .200    -.54639E-03    -.94229E-04    -.55611E-01     .22845E-01    -.11508E-01         .000      .000
    .210    -.67098E-03    -.11214E-03    -.12774E+00     .28364E-01    -.12926E-01         .000      .000
    .220    -.80307E-03    -.12331E-03    -.76471E-02    -.48426E-02    -.13789E-01         .000      .000
    .230    -.94765E-03    -.13219E-03     .25555E+00    -.59482E-01    -.14912E-01         .000      .000
    .240    -.11034E-02    -.14758E-03     .53361E+00    -.10821E+00    -.16660E-01         .000      .000
    .250    -.12819E-02    -.17813E-03     .67309E+00    -.12326E+00    -.18723E-01         .000      .000
    .260    -.14750E-02    -.22731E-03     .60038E+00    -.97412E-01    -.19910E-01         .000      .000
    .270    -.16712E-02    -.29172E-03     .36832E+00    -.49198E-01    -.18433E-01         .000      .000
    .280    -.18360E-02    -.36416E-03     .13066E+00    -.93417E-02    -.14672E-01         .000      .000
    .290    -.19626E-02    -.43997E-03    -.10139E-01     .96994E-02    -.10318E-01         .000      .000
    .300    -.20440E-02    -.52080E-03    -.13025E+00     .36177E-01    -.64317E-02         .000      .000
    .310    -.20978E-02    -.61003E-03    -.48176E+00     .12034E+00    -.44795E-02         .000      .000
    .320    -.21390E-02    -.70174E-03    -.11639E+01     .26584E+00    -.41520E-02         .000      .000
    .330    -.21767E-02    -.77754E-03    -.20057E+01     .42569E+00    -.26159E-02         .000      .000
    .340    -.21774E-02    -.81288E-03    -.26574E+01     .52569E+00     .30593E-02         .000      .000
    .350    -.20907E-02    -.78864E-03    -.27230E+01     .49076E+00     .16152E-01         .000      .000
    .360    -.18319E-02    -.70528E-03    -.19952E+01     .30239E+00     .35985E-01         .000      .000
    .370    -.13827E-02    -.59056E-03    -.74658E+00     .45385E-01     .52353E-01         .000      .000
    .380    -.83672E-03    -.49084E-03     .26084E+00    -.10379E+00     .53248E-01         .000      .000
    .390    -.37171E-03    -.44398E-03    -.60883E-01     .64495E-01     .38031E-01         .000      .000
    .400    -.87892E-04    -.43540E-03    -.22385E+01     .57679E+00     .19230E-01         .000      .000
    .410     .50463E-04    -.37535E-03    -.50388E+01     .10792E+01     .11503E-01         .000      .000
    .420     .17530E-03    -.15004E-03    -.57589E+01     .10296E+01     .13541E-01         .000      .000
    .430     .31555E-03     .27281E-03    -.25941E+01     .21241E+00     .13887E-01         .000      .000
    .440     .41252E-03     .78517E-03     .33066E+01    -.97276E+00     .23202E-02         .000      .000
    .450     .29871E-03     .12000E-02     .86061E+01    -.18462E+01    -.27996E-01         .000      .000
    .460    -.19064E-03     .13776E-02     .10801E+02    -.20472E+01    -.71233E-01         .000      .000
    .470    -.11172E-02     .12960E-02     .97457E+01    -.16833E+01    -.11194E+00         .000      .000
    .480    -.23854E-02     .10325E-02     .71518E+01    -.11583E+01    -.13961E+00         .000      .000
    .490    -.38586E-02     .69225E-03     .53765E+01    -.91678E+00    -.15220E+00         .000      .000
    .500    -.53791E-02     .32448E-03     .57910E+01    -.11190E+01    -.14971E+00         .000      .000
    .510    -.68299E-02    -.11507E-03     .76566E+01    -.15099E+01    -.14022E+00         .000      .000
    .520    -.82045E-02    -.72354E-03     .89348E+01    -.16645E+01    -.13686E+00         .000      .000
    .530    -.96013E-02    -.15790E-02     .75731E+01    -.12117E+01    -.14364E+00         .000      .000
    .540    -.11089E-01    -.26749E-02     .23018E+01     .16524E-01    -.15380E+00         .000      .000
    .550    -.12633E-01    -.38751E-02    -.61881E+01     .17400E+01    -.15079E+00         .000      .000
    .560    -.13997E-01    -.49407E-02    -.14752E+02     .32464E+01    -.11576E+00         .000      .000
    .570    -.14843E-01    -.56436E-02    -.19569E+02     .38438E+01    -.49513E-01         .000      .000
    .580    -.14966E-01    -.58951E-02    -.18719E+02     .33451E+01     .23152E-01         .000      .000
    .590    -.14445E-01    -.57982E-02    -.13915E+02     .23005E+01     .76712E-01         .000      .000
    .600    -.13561E-01    -.55636E-02    -.97846E+01     .16794E+01     .91643E-01         .000      .000
    .610    -.12757E-01    -.53291E-02    -.10137E+02     .20429E+01     .63141E-01         .000      .000
    .620    -.12379E-01    -.50348E-02    -.14628E+02     .30652E+01     .10406E-01         .000      .000
    .630    -.12557E-01    -.44600E-02    -.19126E+02     .37947E+01    -.45097E-01         .000      .000
    .640    -.13247E-01    -.33763E-02    -.18012E+02     .31535E+01    -.90961E-01         .000      .000
    .650    -.14314E-01    -.17412E-02    -.74482E+01     .60550E+00    -.11828E+00         .000      .000
    .660    -.15580E-01     .18131E-03     .11622E+02    -.33680E+01    -.13533E+00         .000      .000
    .670    -.16937E-01     .18669E-02     .33586E+02    -.75086E+01    -.12674E+00         .000      .000
    .680    -.17986E-01     .27138E-02     .50740E+02    -.10323E+02    -.79123E-01         .000      .000
    .690    -.18557E-01     .22698E-02     .56707E+02    -.10751E+02    -.42563E-01         .000      .000
    .700    -.19000E-01     .38228E-03     .48703E+02    -.84084E+01    -.54857E-01         .000      .000
    .710    -.19705E-01    -.27597E-02     .25500E+02    -.31372E+01    -.82437E-01         .000      .000
    .720    -.20516E-01    -.65405E-02    -.10381E+02     .41502E+01    -.70926E-01         .000      .000
    .730    -.20959E-01    -.99462E-02    -.46686E+02     .10575E+02    -.11335E-01         .000      .000
    .740    -.20641E-01    -.12011E-01    -.67119E+02     .13237E+02     .78331E-01         .000      .000
    .750    -.19339E-01    -.12369E-01    -.65994E+02     .11905E+02     .18436E+00         .000      .000
    .760    -.16859E-01    -.11317E-01    -.50980E+02     .85306E+01     .31952E+00         .000      .000
    .770    -.12854E-01    -.94302E-02    -.32489E+02     .49576E+01     .48346E+00         .000      .000
    .780    -.72718E-02    -.72424E-02    -.16548E+02     .21117E+01     .62300E+00         .000      .000
    .790    -.66424E-03    -.51626E-02    -.71293E+01     .79758E+00     .68200E+00         .000      .000
    .800     .61118E-02    -.34011E-02    -.91919E+01     .19476E+01     .66441E+00         .000      .000
    .810     .12578E-01    -.17603E-02    -.23342E+02     .51530E+01     .63254E+00         .000      .000
    .820     .18884E-01     .41335E-03    -.38730E+02     .76801E+01     .63573E+00         .000      .000
    .830     .25377E-01     .38004E-02    -.38072E+02     .62806E+01     .66335E+00         .000      .000
    .840     .31980E-01     .84664E-02    -.13040E+02     .27862E+00     .64024E+00         .000      .000
    .850     .37781E-01     .13642E-01     .27186E+02    -.76502E+01     .49835E+00         .000      .000
    .860     .41543E-01     .18156E-01     .63389E+02    -.13697E+02     .23664E+00         .000      .000
    .870     .42277E-01     .21140E-01     .81414E+02    -.15838E+02    -.95796E-01         .000      .000
    .880     .39633E-01     .22416E-01     .81593E+02    -.14987E+02    -.42721E+00         .000      .000
    .890     .33954E-01     .22329E-01     .74889E+02    -.13562E+02    -.69318E+00         .000      .000
    .900     .26123E-01     .21279E-01     .72338E+02    -.13437E+02    -.85351E+00         .000      .000
    .910     .17329E-01     .19357E-01     .78165E+02    -.14974E+02    -.88047E+00         .000      .000
    .920     .89606E-02     .16256E-01     .88413E+02    -.16993E+02    -.77297E+00         .000      .000
    .930     .20749E-02     .11420E-01     .92798E+02    -.17243E+02    -.60297E+00         .000      .000
    .940    -.33847E-02     .43771E-02     .78315E+02    -.13137E+02    -.51778E+00         .000      .000
    .950    -.88154E-02    -.48527E-02     .33324E+02    -.26484E+01    -.59236E+00         .000      .000
    .960    -.15379E-01    -.15315E-01    -.45236E+02     .13981E+02    -.71163E+00         .000      .000
    .970    -.22368E-01    -.24905E-01    -.14024E+03     .31985E+02    -.62977E+00         .000      .000
    .980    -.26817E-01    -.30895E-01    -.21121E+03     .42675E+02    -.20433E+00         .000      .000
    .990    -.25650E-01    -.31400E-01    -.21718E+03     .39295E+02     .46127E+00         .000      .000
   1.000    -.17740E-01    -.26792E-01    -.15302E+03     .23731E+02     .10849E+01         .000      .000
   1.010    -.50685E-02    -.19664E-01    -.62084E+02     .65525E+01     .13783E+01         .000      .000
   1.020     .85451E-02    -.13045E-01    -.52411E+01    -.99726E+00     .12908E+01         .000      .000
   1.030     .20151E-01    -.82627E-02    -.14350E+02     .44525E+01     .10235E+01         .000      .000
   1.040     .29190E-01    -.41078E-02    -.68075E+02     .15826E+02     .80467E+00         .000      .000
   1.050     .36588E-01     .20426E-02    -.10742E+03     .20887E+02     .68501E+00         .000      .000
   1.060     .42972E-01     .11974E-01    -.81496E+02     .11760E+02     .58859E+00         .000      .000
   1.070     .48182E-01     .25047E-01     .14534E+02    -.95592E+01     .44107E+00         .000      .000
   1.080     .51364E-01     .38435E-01     .14317E+03    -.34371E+02     .16839E+00         .000      .000
   1.090     .50951E-01     .48610E-01     .25695E+03    -.53884E+02    -.28127E+00         .000      .000
   1.100     .45221E-01     .52729E-01     .32005E+03    -.62123E+02    -.88468E+00         .000      .000
   1.110     .33156E-01     .49502E-01     .31349E+03    -.56615E+02    -.15183E+01         .000      .000
   1.120     .15385E-01     .39623E-01     .24255E+03    -.40030E+02    -.19951E+01         .000      .000
   1.130    -.58131E-02     .25473E-01     .14003E+03    -.19926E+02    -.21956E+01         .000      .000
   1.140    -.27750E-01     .99125E-02     .49316E+02    -.43379E+01    -.21652E+01         .000      .000
   1.150    -.48816E-01    -.51471E-02    -.48436E+01     .38027E+01    -.20442E+01         .000      .000
   1.160    -.68610E-01    -.19305E-01    -.31915E+02     .81111E+01    -.19142E+01         .000      .000
   1.170    -.87022E-01    -.32951E-01    -.60891E+02     .14346E+02    -.17592E+01         .000      .000
   1.180    -.10347E+00    -.46052E-01    -.10995E+03     .24689E+02    -.15059E+01         .000      .000
   1.190    -.11658E+00    -.57638E-01    -.17265E+03     .36670E+02    -.10855E+01         .000      .000
   1.200    -.12449E+00    -.66221E-01    -.22931E+03     .46296E+02    -.45945E+00         .000      .000
   1.210    -.12515E+00    -.70521E-01    -.26305E+03     .50791E+02     .35124E+00         .000      .000
   1.220    -.11718E+00    -.69927E-01    -.26622E+03     .49285E+02     .12446E+01         .000      .000
   1.230    -.10034E+00    -.64648E-01    -.24130E+03     .42892E+02     .21131E+01         .000      .000
   1.240    -.75361E-01    -.55580E-01    -.20126E+03     .34623E+02     .28516E+01         .000      .000
   1.250    -.44103E-01    -.43819E-01    -.16293E+03     .27611E+02     .33536E+01         .000      .000
   1.260    -.91908E-02    -.30110E-01    -.13574E+03     .23044E+02     .35855E+01         .000      .000
   1.270     .27037E-01    -.14608E-01    -.11723E+03     .19753E+02     .36459E+01         .000      .000
   1.280     .63636E-01     .29869E-02    -.93565E+02     .14446E+02     .36775E+01         .000      .000
   1.290     .10060E+00     .22915E-01    -.43304E+02     .28836E+01     .37119E+01         .000      .000
   1.300     .13757E+00     .44520E-01     .47521E+02    -.16521E+02     .36546E+01         .000      .000
   1.310     .17283E+00     .65703E-01     .16540E+03    -.39336E+02     .33412E+01         .000      .000
   1.320     .20303E+00     .83459E-01     .27055E+03    -.57062E+02     .26245E+01         .000      .000
   1.330     .22433E+00     .95314E-01     .32374E+03    -.63171E+02     .16130E+01         .000      .000
   1.340     .23537E+00     .10057E+00     .31296E+03    -.57468E+02     .62341E+00         .000      .000
   1.350     .23747E+00     .10049E+00     .26333E+03    -.46775E+02    -.16938E+00         .000      .000
   1.360     .23254E+00     .97162E-01     .22198E+03    -.40222E+02    -.79828E+00         .000      .000
   1.370     .22167E+00     .91699E-01     .21530E+03    -.40512E+02    -.13761E+01         .000      .000
   1.380     .20496E+00     .83575E-01     .22482E+03    -.41950E+02    -.19692E+01         .000      .000
   1.390     .18235E+00     .71724E-01     .21388E+03    -.37771E+02    -.25415E+01         .000      .000
   1.400     .15460E+00     .55944E-01     .16485E+03    -.26218E+02    -.29712E+01         .000      .000
   1.410     .12377E+00     .37280E-01     .85678E+02    -.99451E+01    -.31475E+01         .000      .000
   1.420     .92479E-01     .17531E-01    -.41385E+01     .71122E+01    -.30779E+01         .000      .000
   1.430     .62821E-01    -.14217E-02    -.86708E+02     .21932E+02    -.28280E+01         .000      .000
   1.440     .36404E-01    -.18087E-01    -.15331E+03     .33452E+02    -.24326E+01         .000      .000
   1.450     .14589E-01    -.31430E-01    -.20308E+03     .41728E+02    -.19115E+01         .000      .000
   1.460    -.14815E-02    -.40728E-01    -.23465E+03     .46336E+02    -.12875E+01         .000      .000
   1.470    -.10946E-01    -.45592E-01    -.24517E+03     .46847E+02    -.59910E+00         .000      .000
   1.480    -.13509E-01    -.46090E-01    -.23667E+03     .44051E+02     .76178E-01         .000      .000
   1.490    -.97995E-02    -.42651E-01    -.21628E+03     .39488E+02     .63905E+00         .000      .000
   1.500    -.12281E-02    -.35796E-01    -.19065E+03     .34268E+02     .10522E+01         .000      .000
   1.510     .10915E-01    -.25931E-01    -.16166E+03     .28383E+02     .13661E+01         .000      .000
   1.520     .25870E-01    -.13312E-01    -.12390E+03     .20355E+02     .16120E+01         .000      .000
   1.530     .42771E-01     .16863E-02    -.66794E+02     .81510E+01     .17423E+01         .000      .000
   1.540     .60001E-01     .18090E-01     .13270E+02    -.80775E+01     .16590E+01         .000      .000
   1.550     .74988E-01     .34166E-01     .10266E+03    -.24792E+02     .12886E+01         .000      .000
   1.560     .84911E-01     .47961E-01     .17863E+03    -.37676E+02     .66084E+00         .000      .000
   1.570     .87776E-01     .58075E-01     .22730E+03    -.45022E+02    -.95503E-01         .000      .000
   1.580     .83062E-01     .63989E-01     .25233E+03    -.48504E+02    -.83454E+00         .000      .000
   1.590     .71316E-01     .65717E-01     .26775E+03    -.50982E+02    -.15050E+01         .000      .000
   1.600     .53112E-01     .63179E-01     .28246E+03    -.53465E+02    -.21303E+01         .000      .000
   1.610     .29026E-01     .55887E-01     .28972E+03    -.53784E+02    -.26601E+01         .000      .000
   1.620     .54394E-03     .43305E-01     .27221E+03    -.48546E+02    -.29991E+01         .000      .000
   1.630    -.30292E-01     .25518E-01     .21981E+03    -.36650E+02    -.31395E+01         .000      .000
   1.640    -.61662E-01     .34751E-02     .13695E+03    -.19480E+02    -.31054E+01         .000      .000
   1.650    -.91822E-01    -.21299E-01     .30022E+02     .19838E+01    -.28980E+01         .000      .000
   1.660    -.11898E+00    -.46803E-01    -.97036E+02     .26822E+02    -.24987E+01         .000      .000
   1.670    -.14109E+00    -.70448E-01    -.23015E+03     .51532E+02    -.18901E+01         .000      .000
   1.680    -.15623E+00    -.89413E-01    -.34342E+03     .70893E+02    -.11182E+01         .000      .000
   1.690    -.16318E+00    -.10145E+00    -.41446E+03     .81339E+02    -.26465E+00         .000      .000
   1.700    -.16144E+00    -.10547E+00    -.43695E+03     .82662E+02     .61423E+00         .000      .000
   1.710    -.15087E+00    -.10149E+00    -.41798E+03     .76651E+02     .15011E+01         .000      .000
   1.720    -.13139E+00    -.90228E-01    -.36655E+03     .64880E+02     .23957E+01         .000      .000
   1.730    -.10319E+00    -.72922E-01    -.28878E+03     .48475E+02     .32196E+01         .000      .000
   1.740    -.67678E-01    -.51243E-01    -.19290E+03     .29354E+02     .38417E+01         .000      .000
   1.750    -.27138E-01    -.27200E-01    -.94019E+02     .10771E+02     .42321E+01         .000      .000
   1.760     .16258E-01    -.26740E-02    -.89132E+01    -.43887E+01     .44118E+01         .000      .000
   1.770     .60301E-01     .21099E-01     .58604E+02    -.16396E+02     .43522E+01         .000      .000
   1.780     .10249E+00     .43444E-01     .11917E+03    -.27649E+02     .40473E+01         .000      .000
   1.790     .14051E+00     .63676E-01     .17965E+03    -.38816E+02     .35202E+01         .000      .000
   1.800     .17214E+00     .80899E-01     .23590E+03    -.48752E+02     .27695E+01         .000      .000
   1.810     .19532E+00     .94236E-01     .28326E+03    -.56773E+02     .18459E+01         .000      .000
   1.820     .20882E+00     .10294E+00     .31908E+03    -.62402E+02     .85191E+00         .000      .000
   1.830     .21237E+00     .10644E+00     .33959E+03    -.64938E+02    -.13698E+00         .000      .000
