


 TIME HISTORY FOR STORY NO.  5



    TIME   DISPLACEMENT    STORY DRIFT    STORY SHEAR   ACCELERATION     VELOCITY          DAMAGE    DAMAGE
                                                                                          BEAM-SLAB  COL-WALL

    .000     .00000E+00     .00000E+00     .00000E+00     .00000E+00     .00000E+00         .000      .000
    .010    -.15342E-05     .31055E-10    -.52502E-03     .17153E-03    -.12986E-04         .000      .000
    .020    -.27761E-06     .80130E-07     .97963E-03    -.10149E-02    -.55416E-04         .000      .000
    .030    -.26816E-05     .13900E-06     .96043E-02    -.10857E-02    -.10566E-03         .000      .000
    .040    -.23683E-05    -.57522E-07    -.19457E-02     .20180E-02    -.15385E-03         .000      .000
    .050    -.59766E-05    -.59842E-07     .49956E-02    -.41641E-03    -.26519E-03         .000      .000
    .060    -.79643E-05    -.12899E-06     .72056E-02    -.76035E-03    -.46466E-03         .000      .000
    .070    -.15406E-04    -.19009E-06     .17038E-01    -.23876E-02    -.70364E-03         .000      .000
    .080    -.22163E-04    -.38731E-06     .22765E-01    -.23615E-02    -.98227E-03         .000      .000
    .090    -.35236E-04    -.68529E-06     .44195E-01    -.39919E-02    -.13134E-02         .000      .000
    .100    -.48590E-04    -.15646E-05     .56123E-01    -.17863E-02    -.16943E-02         .000      .000
    .110    -.69222E-04    -.31035E-05     .77146E-01    -.14610E-02    -.21039E-02         .000      .000
    .120    -.90810E-04    -.57275E-05     .89994E-01     .18908E-03    -.25583E-02         .000      .000
    .130    -.12050E-03    -.95544E-05     .11290E+00    -.10858E-02    -.30452E-02         .000      .000
    .140    -.15172E-03    -.15078E-04     .12342E+00    -.13537E-03    -.35350E-02         .000      .000
    .150    -.18954E-03    -.22386E-04     .14077E+00    -.14158E-02    -.35256E-02         .000      .000
    .160    -.22164E-03    -.32000E-04     .14551E+00     .40657E-03    -.33414E-02         .000      .000
    .170    -.25940E-03    -.44462E-04     .13563E+00     .82257E-02    -.40583E-02         .000      .000
    .180    -.30524E-03    -.60146E-04     .49242E-01     .25106E-01    -.55119E-02         .000      .000
    .190    -.37068E-03    -.76529E-04    -.16609E-01     .15235E-01    -.72859E-02         .000      .000
    .200    -.45216E-03    -.91565E-04     .28014E-01    -.21163E-01    -.94140E-02         .000      .000
    .210    -.55884E-03    -.10621E-03     .15546E+00    -.46208E-01    -.11489E-01         .000      .000
    .220    -.67976E-03    -.12336E-03     .25383E+00    -.31195E-01    -.12910E-01         .000      .000
    .230    -.81546E-03    -.14511E-03     .32921E+00     .54271E-02    -.13862E-01         .000      .000
    .240    -.95584E-03    -.17401E-03     .34620E+00     .48269E-01    -.14476E-01         .000      .000
    .250    -.11038E-02    -.21126E-03     .31284E+00     .69282E-01    -.14737E-01         .000      .000
    .260    -.12477E-02    -.25682E-03     .24599E+00     .58710E-01    -.14121E-01         .000      .000
    .270    -.13795E-02    -.30989E-03     .17445E+00     .28418E-01    -.11472E-01         .000      .000
    .280    -.14718E-02    -.37063E-03     .36394E-01     .18308E-01    -.72297E-02         .000      .000
    .290    -.15227E-02    -.43920E-03    -.25762E+00     .57034E-01    -.25651E-02         .000      .000
    .300    -.15232E-02    -.51334E-03    -.80305E+00     .12952E+00     .20614E-02         .000      .000
    .310    -.14877E-02    -.58452E-03    -.14311E+01     .15656E+00     .47790E-02         .000      .000
    .320    -.14372E-02    -.64233E-03    -.19681E+01     .11250E+00     .46146E-02         .000      .000
    .330    -.13992E-02    -.67681E-03    -.22979E+01     .16908E-01     .33495E-02         .000      .000
    .340    -.13645E-02    -.68055E-03    -.23065E+01    -.86997E-01     .38191E-02         .000      .000
    .350    -.13020E-02    -.65368E-03    -.19929E+01    -.12570E+00     .10535E-01         .000      .000
    .360    -.11266E-02    -.60619E-03    -.16468E+01    -.28327E-01     .25407E-01         .000      .000
    .370    -.79214E-03    -.55209E-03    -.16166E+01     .19941E+00     .40800E-01         .000      .000
    .380    -.34588E-03    -.50011E-03    -.22902E+01     .47073E+00     .45570E-01         .000      .000
    .390     .72277E-04    -.43566E-03    -.34207E+01     .51987E+00     .36149E-01         .000      .000
    .400     .34751E-03    -.32066E-03    -.38062E+01     .90700E-01     .17815E-01         .000      .000
    .410     .42582E-03    -.12717E-03    -.23820E+01    -.64779E+00    -.11896E-02         .000      .000
    .420     .32533E-03     .12844E-03     .38291E+00    -.10792E+01    -.19484E-01         .000      .000
    .430     .42743E-04     .39363E-03     .29974E+01    -.75856E+00    -.35745E-01         .000      .000
    .440    -.37265E-03     .61780E-03     .45635E+01     .52341E-01    -.47158E-01         .000      .000
    .450    -.90125E-03     .77427E-03     .56866E+01     .63429E+00    -.59034E-01         .000      .000
    .460    -.15682E-02     .84377E-03     .68706E+01     .63416E+00    -.75398E-01         .000      .000
    .470    -.24132E-02     .81147E-03     .80196E+01     .16150E+00    -.92868E-01         .000      .000
    .480    -.34179E-02     .67187E-03     .91013E+01    -.44349E+00    -.10788E+00         .000      .000
    .490    -.45509E-02     .41626E-03     .98477E+01    -.73087E+00    -.11677E+00         .000      .000
    .500    -.57036E-02     .28757E-04     .95260E+01    -.44833E+00    -.11076E+00         .000      .000
    .510    -.67148E-02    -.49870E-03     .79014E+01     .19689E+00    -.89521E-01         .000      .000
    .520    -.74809E-02    -.11646E-02     .49014E+01     .87755E+00    -.64464E-01         .000      .000
    .530    -.80223E-02    -.19469E-02     .27606E+00     .13085E+01    -.44959E-01         .000      .000
    .540    -.84137E-02    -.27785E-02    -.52467E+01     .11593E+01    -.35608E-01         .000      .000
    .550    -.87577E-02    -.35598E-02    -.99896E+01     .38578E+00    -.33130E-01         .000      .000
    .560    -.90559E-02    -.42059E-02    -.13042E+02    -.50638E+00    -.24329E-01         .000      .000
    .570    -.91996E-02    -.46732E-02    -.14608E+02    -.84710E+00    -.19421E-02         .000      .000
    .580    -.90705E-02    -.49644E-02    -.15828E+02    -.24410E+00     .27744E-01         .000      .000
    .590    -.86467E-02    -.50970E-02    -.17863E+02     .99316E+00     .56585E-01         .000      .000
    .600    -.79978E-02    -.50585E-02    -.20206E+02     .18673E+01     .67388E-01         .000      .000
    .610    -.74280E-02    -.48053E-02    -.20971E+02     .15928E+01     .39419E-01         .000      .000
    .620    -.73438E-02    -.42964E-02    -.18889E+02     .27078E+00    -.28666E-01         .000      .000
    .630    -.80970E-02    -.35126E-02    -.12962E+02    -.14566E+01    -.12514E+00         .000      .000
    .640    -.98711E-02    -.24986E-02    -.29787E+01    -.26398E+01    -.22859E+00         .000      .000
    .650    -.12573E-01    -.13951E-02     .94458E+01    -.25018E+01    -.30319E+00         .000      .000
    .660    -.15761E-01    -.41639E-03     .21930E+02    -.10691E+01    -.32586E+00         .000      .000
    .670    -.18804E-01     .18897E-03     .31885E+02     .10118E+01    -.26290E+00         .000      .000
    .680    -.20700E-01     .19705E-03     .36586E+02     .28578E+01    -.10454E+00         .000      .000
    .690    -.20827E-01    -.53289E-03     .34073E+02     .39550E+01     .74189E-01         .000      .000
    .700    -.19383E-01    -.20130E-02     .21311E+02     .45009E+01     .20293E+00         .000      .000
    .710    -.16945E-01    -.39961E-02     .17373E-01     .36473E+01     .27801E+00         .000      .000
    .720    -.13976E-01    -.60055E-02    -.20071E+02     .37994E+00     .30709E+00         .000      .000
    .730    -.11013E-01    -.76333E-02    -.32613E+02    -.34120E+01     .27461E+00         .000      .000
    .740    -.86299E-02    -.86962E-02    -.40839E+02    -.44412E+01     .19917E+00         .000      .000
    .750    -.69703E-02    -.90984E-02    -.47254E+02    -.24155E+01     .14088E+00         .000      .000
    .760    -.55420E-02    -.87713E-02    -.48369E+02     .25559E+00     .16272E+00         .000      .000
    .770    -.34241E-02    -.77899E-02    -.42758E+02     .20502E+01     .27185E+00         .000      .000
    .780    -.29420E-04    -.63868E-02    -.35632E+02     .33302E+01     .40392E+00         .000      .000
    .790     .44983E-02    -.47667E-02    -.33476E+02     .43403E+01     .48905E+00         .000      .000
    .800     .95128E-02    -.29009E-02    -.35001E+02     .36044E+01     .50197E+00         .000      .000
    .810     .14338E-01    -.57820E-03    -.31437E+02    -.12090E+00     .45517E+00         .000      .000
    .820     .18470E-01     .23189E-02    -.17254E+02    -.50253E+01     .36578E+00         .000      .000
    .830     .21577E-01     .56402E-02     .35565E+01    -.72963E+01     .25437E+00         .000      .000
    .840     .23514E-01     .90619E-02     .23482E+02    -.51807E+01     .12966E+00         .000      .000
    .850     .24139E-01     .12264E-01     .39599E+02    -.74884E+00    -.53396E-02         .000      .000
    .860     .23387E-01     .15003E-01     .53869E+02     .22626E+01    -.14734E+00         .000      .000
    .870     .21138E-01     .17090E-01     .69241E+02     .17093E+01    -.30602E+00         .000      .000
    .880     .17217E-01     .18333E-01     .84997E+02    -.13268E+01    -.47888E+00         .000      .000
    .890     .11625E-01     .18550E-01     .97598E+02    -.42138E+01    -.63142E+00         .000      .000
    .900     .48447E-02     .17612E-01     .10466E+03    -.50897E+01    -.70684E+00         .000      .000
    .910    -.20284E-02     .15407E-01     .10462E+03    -.34033E+01    -.63740E+00         .000      .000
    .920    -.72950E-02     .11823E-01     .94426E+02     .40776E+00    -.38598E+00         .000      .000
    .930    -.93453E-02     .68126E-02     .69605E+02     .52409E+01    -.14303E-01         .000      .000
    .940    -.77618E-02     .53808E-03     .26210E+02     .95268E+01     .30261E+00         .000      .000
    .950    -.39627E-02    -.64174E-02    -.33291E+02     .10735E+02     .41788E+00         .000      .000
    .960    -.63284E-04    -.12976E-01    -.93597E+02     .58950E+01     .33486E+00         .000      .000
    .970     .25361E-02    -.17900E-01    -.13190E+03    -.46944E+01     .19358E+00         .000      .000
    .980     .40781E-02    -.20444E-01    -.13849E+03    -.14256E+02     .13629E+00         .000      .000
    .990     .57508E-02    -.20684E-01    -.12650E+03    -.13935E+02     .22785E+00         .000      .000
   1.000     .90526E-02    -.19201E-01    -.11771E+03    -.18856E+01     .44319E+00         .000      .000
   1.010     .14595E-01    -.16473E-01    -.11939E+03     .13247E+02     .64862E+00         .000      .000
   1.020     .21590E-01    -.12600E-01    -.12166E+03     .19740E+02     .72035E+00         .000      .000
   1.030     .28413E-01    -.73932E-02    -.10865E+03     .12059E+02     .61542E+00         .000      .000
   1.040     .33298E-01    -.69477E-03    -.70262E+02    -.49187E+01     .33397E+00         .000      .000
   1.050     .34546E-01     .72679E-02    -.11495E+02    -.19202E+02    -.10705E+00         .000      .000
   1.060     .30997E-01     .15842E-01     .53039E+02    -.21636E+02    -.59444E+00         .000      .000
   1.070     .23135E-01     .24166E-01     .11549E+03    -.13269E+02    -.94059E+00         .000      .000
   1.080     .12929E-01     .31228E-01     .17603E+03    -.15844E+01    -.10666E+01         .000      .000
   1.090     .23410E-02     .35809E-01     .22614E+03     .80017E+01    -.10326E+01         .000      .000
   1.100    -.75080E-02     .36833E-01     .24888E+03     .13089E+02    -.93482E+00         .000      .000
   1.110    -.16345E-01     .33940E-01     .23950E+03     .11434E+02    -.83467E+00         .000      .000
   1.120    -.24238E-01     .27547E-01     .20861E+03     .31183E+01    -.74468E+00         .000      .000
   1.130    -.31286E-01     .18429E-01     .16646E+03    -.67311E+01    -.66625E+00         .000      .000
   1.140    -.37662E-01     .73443E-02     .11312E+03    -.10780E+02    -.61538E+00         .000      .000
   1.150    -.43669E-01    -.49859E-02     .44571E+02    -.59367E+01    -.58736E+00         .000      .000
   1.160    -.49305E-01    -.17707E-01    -.34860E+02     .34363E+01    -.53059E+00         .000      .000
   1.170    -.54071E-01    -.29829E-01    -.11080E+03     .98223E+01    -.41332E+00         .000      .000
   1.180    -.57413E-01    -.40459E-01    -.17199E+03     .99854E+01    -.24857E+00         .000      .000
   1.190    -.58941E-01    -.48937E-01    -.21842E+03     .64358E+01    -.51832E-01         .000      .000
   1.200    -.58265E-01    -.54722E-01    -.25277E+03     .28667E+01     .20145E+00         .000      .000
   1.210    -.54628E-01    -.57355E-01    -.27308E+03     .11313E+01     .53994E+00         .000      .000
   1.220    -.47258E-01    -.56602E-01    -.27703E+03     .18241E+01     .94068E+00         .000      .000
   1.230    -.35695E-01    -.52545E-01    -.26789E+03     .48119E+01     .13770E+01         .000      .000
   1.240    -.19782E-01    -.45444E-01    -.24954E+03     .80386E+01     .17933E+01         .000      .000
   1.250    -.28399E-03    -.35582E-01    -.22137E+03     .86696E+01     .20725E+01         .000      .000
   1.260     .20920E-01    -.23250E-01    -.18208E+03     .55303E+01     .21272E+01         .000      .000
   1.270     .41645E-01    -.87256E-02    -.12830E+03    -.11803E+01     .19980E+01         .000      .000
   1.280     .60649E-01     .76098E-02    -.54073E+02    -.96587E+01     .18008E+01         .000      .000
   1.290     .77685E-01     .24958E-01     .38242E+02    -.15239E+02     .16126E+01         .000      .000
   1.300     .93046E-01     .42016E-01     .13117E+03    -.13177E+02     .14687E+01         .000      .000
   1.310     .10713E+00     .57371E-01     .20616E+03    -.45895E+01     .13433E+01         .000      .000
   1.320     .11958E+00     .69954E-01     .25795E+03     .35611E+01     .11147E+01         .000      .000
   1.330     .12902E+00     .79184E-01     .29106E+03     .46461E+01     .76386E+00         .000      .000
   1.340     .13480E+00     .84926E-01     .31461E+03    -.33390E+01     .39863E+00         .000      .000
   1.350     .13698E+00     .87217E-01     .33584E+03    -.15275E+02     .33034E-01         .000      .000
   1.360     .13538E+00     .85878E-01     .34308E+03    -.20484E+02    -.35518E+00         .000      .000
   1.370     .12997E+00     .80775E-01     .31891E+03    -.14367E+02    -.71562E+00         .000      .000
   1.380     .12138E+00     .72271E-01     .26852E+03    -.38130E+01    -.98433E+00         .000      .000
   1.390     .11063E+00     .61043E-01     .20935E+03     .26593E+01    -.11523E+01         .000      .000
   1.400     .98660E-01     .47733E-01     .14716E+03     .32815E+01    -.12229E+01         .000      .000
   1.410     .86495E-01     .33009E-01     .78458E+02     .93684E+00    -.11940E+01         .000      .000
   1.420     .74948E-01     .17728E-01     .30754E+01    -.12235E+01    -.11137E+01         .000      .000
   1.430     .64243E-01     .28966E-02    -.74938E+02    -.13619E+01    -.10265E+01         .000      .000
   1.440     .54491E-01    -.10427E-01    -.14815E+03     .56036E-02    -.91789E+00         .000      .000
   1.450     .46019E-01    -.21269E-01    -.20548E+03     .10146E+01    -.76968E+00         .000      .000
   1.460     .39246E-01    -.28983E-01    -.24126E+03     .15805E+01    -.57652E+00         .000      .000
   1.470     .34646E-01    -.33312E-01    -.25871E+03     .28608E+01    -.33591E+00         .000      .000
   1.480     .32581E-01    -.34218E-01    -.26123E+03     .46061E+01    -.79756E-01         .000      .000
   1.490     .32851E-01    -.31785E-01    -.24872E+03     .54515E+01     .11612E+00         .000      .000
   1.500     .34568E-01    -.26215E-01    -.22034E+03     .43275E+01     .21102E+00         .000      .000
   1.510     .36845E-01    -.17825E-01    -.17404E+03     .78706E+00     .23820E+00         .000      .000
   1.520     .39182E-01    -.71378E-02    -.10823E+03    -.39866E+01     .22148E+00         .000      .000
   1.530     .41085E-01     .49698E-02    -.29656E+02    -.66333E+01     .14897E+00         .000      .000
   1.540     .41911E-01     .17373E-01     .48208E+02    -.50271E+01     .14645E-02         .000      .000
   1.550     .40821E-01     .29012E-01     .11798E+03    -.14430E+01    -.23514E+00         .000      .000
   1.560     .36950E-01     .39029E-01     .18092E+03    -.45235E-01    -.55045E+00         .000      .000
   1.570     .29701E-01     .46695E-01     .23905E+03    -.25403E+01    -.89906E+00         .000      .000
   1.580     .19073E-01     .51317E-01     .28919E+03    -.67687E+01    -.12153E+01         .000      .000
   1.590     .55989E-02     .52244E-01     .32277E+03    -.87352E+01    -.14692E+01         .000      .000
   1.600    -.10066E-01     .48979E-01     .32984E+03    -.60331E+01    -.16495E+01         .000      .000
   1.610    -.26861E-01     .41373E-01     .30601E+03    -.28774E+00    -.16723E+01         .000      .000
   1.620    -.42761E-01     .29716E-01     .25660E+03     .43069E+01    -.14715E+01         .000      .000
   1.630    -.55810E-01     .14574E-01     .18700E+03     .63516E+01    -.11262E+01         .000      .000
   1.640    -.65137E-01    -.33104E-02     .92390E+02     .81870E+01    -.73563E+00         .000      .000
   1.650    -.70522E-01    -.22718E-01    -.26997E+02     .98498E+01    -.34579E+00         .000      .000
   1.660    -.72176E-01    -.41868E-01    -.15264E+03     .84860E+01     .62636E-02         .000      .000
   1.670    -.70643E-01    -.58889E-01    -.26435E+03     .42230E+01     .28547E+00         .000      .000
   1.680    -.66817E-01    -.72229E-01    -.35323E+03     .59391E+00     .46091E+00         .000      .000
   1.690    -.61727E-01    -.80730E-01    -.41589E+03     .15887E+00     .54623E+00         .000      .000
   1.700    -.55968E-01    -.83610E-01    -.44679E+03     .20166E+01     .60825E+00         .000      .000
   1.710    -.49386E-01    -.80553E-01    -.43895E+03     .35826E+01     .72228E+00         .000      .000
   1.720    -.41165E-01    -.71861E-01    -.39234E+03     .39888E+01     .94336E+00         .000      .000
   1.730    -.30272E-01    -.58440E-01    -.31746E+03     .44288E+01     .12386E+01         .000      .000
   1.740    -.16435E-01    -.41545E-01    -.22930E+03     .57997E+01     .15211E+01         .000      .000
   1.750     .62850E-04    -.22432E-01    -.13817E+03     .65592E+01     .17765E+01         .000      .000
   1.760     .18932E-01    -.21735E-02    -.43340E+02     .36928E+01     .19825E+01         .000      .000
   1.770     .39202E-01     .18175E-01     .55960E+02    -.21865E+01     .20368E+01         .000      .000
   1.780     .59042E-01     .37441E-01     .14844E+03    -.67670E+01     .19048E+01         .000      .000
   1.790     .76829E-01     .54626E-01     .22526E+03    -.86677E+01     .16318E+01         .000      .000
   1.800     .91243E-01     .69025E-01     .29009E+03    -.97782E+01     .12280E+01         .000      .000
   1.810     .10108E+00     .79985E-01     .34354E+03    -.10372E+02     .73227E+00         .000      .000
   1.820     .10588E+00     .86901E-01     .38004E+03    -.10029E+02     .23386E+00         .000      .000
   1.830     .10593E+00     .89374E-01     .39762E+03    -.92381E+01    -.21224E+00         .000      .000
