


 TIME HISTORY FOR STORY NO.  6



    TIME   DISPLACEMENT    STORY DRIFT    STORY SHEAR   ACCELERATION     VELOCITY          DAMAGE    DAMAGE
                                                                                          BEAM-SLAB  COL-WALL

    .000     .00000E+00     .00000E+00     .00000E+00     .00000E+00     .00000E+00         .000      .000
    .010    -.17287E-05    -.55745E-09    -.30287E-05     .14597E-03    -.32967E-03         .000      .000
    .020    -.66889E-05    -.96125E-08    -.14768E-02     .80433E-03    -.69716E-03         .000      .000
    .030    -.15710E-04     .92259E-07    -.81662E-02     .24285E-02    -.10764E-02         .000      .000
    .040    -.28234E-04     .81091E-06    -.89198E-02     .17742E-02    -.14624E-02         .000      .000
    .050    -.44948E-04     .25021E-05     .17458E-01    -.49206E-02    -.18462E-02         .000      .000
    .060    -.65053E-04     .44787E-05     .71291E-01    -.15987E-01    -.21968E-02         .000      .000
    .070    -.88949E-04     .51753E-05     .12919E+00    -.26476E-01    -.25658E-02         .000      .000
    .080    -.11662E-03     .30551E-05     .17250E+00    -.33390E-01    -.30085E-02         .000      .000
    .090    -.14955E-03    -.29676E-05     .18922E+00    -.34599E-01    -.35783E-02         .000      .000
    .100    -.18910E-03    -.13280E-04     .17051E+00    -.28620E-01    -.44230E-02         .000      .000
    .110    -.23864E-03    -.27262E-04     .11751E+00    -.16573E-01    -.54598E-02         .000      .000
    .120    -.29772E-03    -.43291E-04     .47550E-01    -.26968E-02    -.63238E-02         .000      .000
    .130    -.36378E-03    -.59212E-04    -.76169E-02     .59204E-02    -.67881E-02         .000      .000
    .140    -.43280E-03    -.73424E-04    -.56903E-02     .16072E-02    -.70511E-02         .000      .000
    .150    -.50430E-03    -.86537E-04     .63299E-01    -.14378E-01    -.71635E-02         .000      .000
    .160    -.57520E-03    -.10162E-03     .14615E+00    -.28827E-01    -.70103E-02         .000      .000
    .170    -.64430E-03    -.12188E-03     .17119E+00    -.29470E-01    -.67917E-02         .000      .000
    .180    -.71071E-03    -.14834E-03     .11768E+00    -.15334E-01    -.64760E-02         .000      .000
    .190    -.77276E-03    -.17986E-03    -.60693E-02     .11500E-01    -.58439E-02         .000      .000
    .200    -.82467E-03    -.21351E-03    -.18357E+00     .46599E-01    -.43394E-02         .000      .000
    .210    -.85550E-03    -.24489E-03    -.36696E+00     .78707E-01    -.16289E-02         .000      .000
    .220    -.85506E-03    -.26987E-03    -.49011E+00     .96011E-01     .17331E-02         .000      .000
    .230    -.82199E-03    -.28707E-03    -.53551E+00     .10032E+00     .47562E-02         .000      .000
    .240    -.76515E-03    -.29822E-03    -.58164E+00     .11188E+00     .62258E-02         .000      .000
    .250    -.70039E-03    -.30430E-03    -.73757E+00     .14911E+00     .68221E-02         .000      .000
    .260    -.62890E-03    -.30089E-03    -.10102E+01     .20441E+00     .73524E-02         .000      .000
    .270    -.55564E-03    -.27791E-03    -.12303E+01     .23632E+00     .71769E-02         .000      .000
    .280    -.48686E-03    -.22670E-03    -.11601E+01     .20364E+00     .65485E-02         .000      .000
    .290    -.42674E-03    -.14856E-03    -.75892E+00     .11262E+00     .53106E-02         .000      .000
    .300    -.38224E-03    -.53756E-04    -.15275E+00    -.98492E-02     .36010E-02         .000      .000
    .310    -.35406E-03     .43612E-04     .54692E+00    -.14473E+00     .20954E-02         .000      .000
    .320    -.34283E-03     .12776E-03     .12311E+01    -.26955E+00    -.15051E-03         .000      .000
    .330    -.36572E-03     .18311E-03     .17647E+01    -.35645E+00    -.49775E-02         .000      .000
    .340    -.44970E-03     .19754E-03     .19848E+01    -.37324E+00    -.11986E-01         .000      .000
    .350    -.60707E-03     .16807E-03     .17673E+01    -.30477E+00    -.19488E-01         .000      .000
    .360    -.84261E-03     .10604E-03     .12534E+01    -.19732E+00    -.27960E-01         .000      .000
    .370    -.11641E-02     .30683E-04     .85009E+00    -.13381E+00    -.35797E-01         .000      .000
    .380    -.15448E-02    -.46635E-04     .80303E+00    -.14341E+00    -.39520E-01         .000      .000
    .390    -.19385E-02    -.12775E-03     .10668E+01    -.20985E+00    -.38451E-01         .000      .000
    .400    -.23018E-02    -.22415E-03     .15713E+01    -.31830E+00    -.33767E-01         .000      .000
    .410    -.26090E-02    -.35802E-03     .20566E+01    -.39823E+00    -.27611E-01         .000      .000
    .420    -.28577E-02    -.55483E-03     .19155E+01    -.32160E+00    -.22507E-01         .000      .000
    .430    -.30674E-02    -.82049E-03     .64712E+00    -.15089E-01    -.19866E-01         .000      .000
    .440    -.32666E-02    -.11242E-02    -.16693E+01     .47023E+00    -.20731E-01         .000      .000
    .450    -.34875E-02    -.14028E-02    -.43709E+01     .98168E+00    -.23300E-01         .000      .000
    .460    -.37324E-02    -.15819E-02    -.65128E+01     .13330E+01    -.25888E-01         .000      .000
    .470    -.40169E-02    -.16035E-02    -.71983E+01     .13653E+01    -.32007E-01         .000      .000
    .480    -.43837E-02    -.14517E-02    -.59223E+01     .10179E+01    -.41460E-01         .000      .000
    .490    -.48449E-02    -.11659E-02    -.30089E+01     .39901E+00    -.50486E-01         .000      .000
    .500    -.53912E-02    -.82348E-03     .68445E+00    -.32267E+00    -.58783E-01         .000      .000
    .510    -.60268E-02    -.51286E-03     .44808E+01    -.10309E+01    -.68914E-01         .000      .000
    .520    -.67615E-02    -.32379E-03     .76811E+01    -.15778E+01    -.76610E-01         .000      .000
    .530    -.75160E-02    -.33191E-03     .93141E+01    -.17824E+01    -.71399E-01         .000      .000
    .540    -.81284E-02    -.56685E-03     .89678E+01    -.16284E+01    -.47930E-01         .000      .000
    .550    -.84139E-02    -.10087E-02     .72758E+01    -.12726E+01    -.63188E-02         .000      .000
    .560    -.82125E-02    -.16260E-02     .47053E+01    -.75057E+00     .48001E-01         .000      .000
    .570    -.74306E-02    -.23914E-02     .63951E+00     .10677E+00     .10938E+00         .000      .000
    .580    -.60204E-02    -.32464E-02    -.57455E+01     .14312E+01     .17210E+00         .000      .000
    .590    -.39969E-02    -.40625E-02    -.14254E+02     .31130E+01     .23225E+00         .000      .000
    .600    -.13642E-02    -.46443E-02    -.23450E+02     .48221E+01     .29566E+00         .000      .000
    .610     .19358E-02    -.47709E-02    -.31242E+02     .61361E+01     .36476E+00         .000      .000
    .620     .59351E-02    -.42515E-02    -.35308E+02     .66183E+01     .43492E+00         .000      .000
    .630     .10601E-01    -.29942E-02    -.34028E+02     .60453E+01     .49511E+00         .000      .000
    .640     .15761E-01    -.10496E-02    -.27745E+02     .46072E+01     .53260E+00         .000      .000
    .650     .21151E-01     .14168E-02    -.18467E+02     .27436E+01     .53972E+00         .000      .000
    .660     .26425E-01     .42010E-02    -.83255E+01     .82719E+00     .50797E+00         .000      .000
    .670     .31156E-01     .71215E-02     .16469E+01    -.10137E+01     .42987E+00         .000      .000
    .680     .34881E-01     .10033E-01     .11432E+02    -.28149E+01     .30930E+00         .000      .000
    .690     .37254E-01     .12813E-01     .21450E+02    -.46841E+01     .16239E+00         .000      .000
    .700     .38084E-01     .15340E-01     .32622E+02    -.68360E+01     .19275E-02         .000      .000
    .710     .37272E-01     .17452E-01     .46039E+02    -.94496E+01    -.16474E+00         .000      .000
    .720     .34814E-01     .18885E-01     .61074E+02    -.12261E+02    -.32376E+00         .000      .000
    .730     .30874E-01     .19281E-01     .74287E+02    -.14495E+02    -.45921E+00         .000      .000
    .740     .25703E-01     .18301E-01     .81315E+02    -.15347E+02    -.57268E+00         .000      .000
    .750     .19463E-01     .15746E-01     .79056E+02    -.14306E+02    -.67347E+00         .000      .000
    .760     .12308E-01     .11624E-01     .65602E+02    -.11066E+02    -.75165E+00         .000      .000
    .770     .45708E-02     .62087E-02     .40637E+02    -.57275E+01    -.78770E+00         .000      .000
    .780    -.32663E-02     .71937E-04     .79377E+01     .71495E+00    -.77053E+00         .000      .000
    .790    -.10641E-01    -.60367E-02    -.24926E+02     .67201E+01    -.69438E+00         .000      .000
    .800    -.16943E-01    -.11433E-01    -.51361E+02     .11216E+02    -.55531E+00         .000      .000
    .810    -.21572E-01    -.15664E-01    -.68832E+02     .13945E+02    -.36369E+00         .000      .000
    .820    -.24120E-01    -.18518E-01    -.77795E+02     .15121E+02    -.14295E+00         .000      .000
    .830    -.24395E-01    -.19979E-01    -.80458E+02     .15264E+02     .88941E-01         .000      .000
    .840    -.22357E-01    -.20134E-01    -.80272E+02     .15063E+02     .31636E+00         .000      .000
    .850    -.18125E-01    -.19056E-01    -.79654E+02     .14847E+02     .52640E+00         .000      .000
    .860    -.11944E-01    -.16727E-01    -.77946E+02     .14328E+02     .70189E+00         .000      .000
    .870    -.42624E-02    -.13088E-01    -.72360E+02     .12923E+02     .82480E+00         .000      .000
    .880     .43549E-02    -.81435E-02    -.60131E+02     .10161E+02     .88844E+00         .000      .000
    .890     .13264E-01    -.20465E-02    -.39819E+02     .58510E+01     .87952E+00         .000      .000
    .900     .21671E-01     .48660E-02    -.11363E+02     .66594E-01     .78837E+00         .000      .000
    .910     .28772E-01     .12058E-01     .23272E+02    -.66772E+01     .61952E+00         .000      .000
    .920     .33815E-01     .18842E-01     .59679E+02    -.13447E+02     .37719E+00         .000      .000
    .930     .36128E-01     .24504E-01     .92965E+02    -.19356E+02     .79091E-01         .000      .000
    .940     .35346E-01     .28418E-01     .11926E+03    -.23746E+02    -.23393E+00         .000      .000
    .950     .31577E-01     .30117E-01     .13593E+03    -.26228E+02    -.50871E+00         .000      .000
    .960     .25440E-01     .29336E-01     .14223E+03    -.26780E+02    -.70324E+00         .000      .000
    .970     .17717E-01     .25971E-01     .13839E+03    -.25431E+02    -.83642E+00         .000      .000
    .980     .87388E-02     .20035E-01     .12301E+03    -.21726E+02    -.96116E+00         .000      .000
    .990    -.14894E-02     .11698E-01     .91599E+02    -.14679E+02    -.10805E+01         .000      .000
   1.000    -.12736E-01     .15147E-02     .40688E+02    -.39409E+01    -.11594E+01         .000      .000
   1.010    -.24356E-01    -.93790E-02    -.23515E+02     .85925E+01    -.11433E+01         .000      .000
   1.020    -.35107E-01    -.19467E-01    -.84481E+02     .19426E+02    -.98035E+00         .000      .000
   1.030    -.43513E-01    -.27419E-01    -.12624E+03     .25881E+02    -.68321E+00         .000      .000
   1.040    -.48532E-01    -.32546E-01    -.14258E+03     .27454E+02    -.31406E+00         .000      .000
   1.050    -.49777E-01    -.34901E-01    -.13896E+03     .25810E+02     .61252E-01         .000      .000
   1.060    -.47414E-01    -.34984E-01    -.12823E+03     .23583E+02     .40537E+00         .000      .000
   1.070    -.41786E-01    -.33264E-01    -.12112E+03     .22442E+02     .71474E+00         .000      .000
   1.080    -.33214E-01    -.29861E-01    -.11910E+03     .22094E+02     .99521E+00         .000      .000
   1.090    -.21938E-01    -.24589E-01    -.11525E+03     .20908E+02     .12583E+01         .000      .000
   1.100    -.80934E-02    -.17262E-01    -.10068E+03     .17261E+02     .15075E+01         .000      .000
   1.110     .80693E-02    -.79989E-02    -.70102E+02     .10446E+02     .17140E+01         .000      .000
   1.120     .25912E-01     .26145E-02    -.24413E+02     .10411E+01     .18387E+01         .000      .000
   1.130     .44486E-01     .13560E-01     .28225E+02    -.90100E+01     .18571E+01         .000      .000
   1.140     .62688E-01     .23656E-01     .75139E+02    -.17223E+02     .17669E+01         .000      .000
   1.150     .79462E-01     .31954E-01     .10620E+03    -.21994E+02     .15686E+01         .000      .000
   1.160     .93690E-01     .37998E-01     .11856E+03    -.23210E+02     .12593E+01         .000      .000
   1.170     .10435E+00     .41822E-01     .11568E+03    -.21786E+02     .86022E+00         .000      .000
   1.180     .11065E+00     .43804E-01     .10407E+03    -.19094E+02     .38785E+00         .000      .000
   1.190     .11198E+00     .44477E-01     .92254E+02    -.16861E+02    -.12140E+00         .000      .000
   1.200     .10827E+00     .44282E-01     .88411E+02    -.16513E+02    -.61832E+00         .000      .000
   1.210     .99632E-01     .43330E-01     .96127E+02    -.18412E+02    -.11110E+01         .000      .000
   1.220     .85976E-01     .41320E-01     .11287E+03    -.21700E+02    -.16240E+01         .000      .000
   1.230     .67149E-01     .37631E-01     .12924E+03    -.24240E+02    -.21370E+01         .000      .000
   1.240     .43375E-01     .31667E-01     .13290E+03    -.23808E+02    -.26075E+01         .000      .000
   1.250     .15332E-01     .23271E-01     .11884E+03    -.20096E+02    -.29785E+01         .000      .000
   1.260    -.15672E-01     .12803E-01     .92379E+02    -.14549E+02    -.31934E+01         .000      .000
   1.270    -.47957E-01     .85215E-03     .61499E+02    -.86145E+01    -.32350E+01         .000      .000
   1.280    -.79865E-01    -.12039E-01     .30679E+02    -.28710E+01    -.31247E+01         .000      .000
   1.290    -.11008E+00    -.25480E-01    -.67638E+00     .30918E+01    -.29038E+01         .000      .000
   1.300    -.13766E+00    -.39152E-01    -.37049E+02     .10264E+02    -.25978E+01         .000      .000
   1.310    -.16175E+00    -.52585E-01    -.82489E+02     .19239E+02    -.22055E+01         .000      .000
   1.320    -.18145E+00    -.64988E-01    -.13545E+03     .29319E+02    -.17189E+01         .000      .000
   1.330    -.19577E+00    -.75280E-01    -.18752E+03     .38599E+02    -.11267E+01         .000      .000
   1.340    -.20370E+00    -.82371E-01    -.22775E+03     .45025E+02    -.44790E+00         .000      .000
   1.350    -.20457E+00    -.85482E-01    -.24804E+03     .47339E+02     .27954E+00         .000      .000
   1.360    -.19806E+00    -.84341E-01    -.24623E+03     .45519E+02     .10216E+01         .000      .000
   1.370    -.18427E+00    -.79188E-01    -.22625E+03     .40590E+02     .17233E+01         .000      .000
   1.380    -.16392E+00    -.70596E-01    -.19457E+03     .33859E+02     .23255E+01         .000      .000
   1.390    -.13837E+00    -.59285E-01    -.15774E+03     .26584E+02     .27460E+01         .000      .000
   1.400    -.10989E+00    -.45941E-01    -.12109E+03     .19685E+02     .29003E+01         .000      .000
   1.410    -.81177E-01    -.31067E-01    -.86410E+02     .13239E+02     .28109E+01         .000      .000
   1.420    -.54116E-01    -.14934E-01    -.50001E+02     .61224E+01     .25890E+01         .000      .000
   1.430    -.29585E-01     .22841E-02    -.79200E+00    -.41963E+01     .23097E+01         .000      .000
   1.440    -.81541E-02     .20048E-01     .74251E+02    -.19895E+02     .19606E+01         .000      .000
   1.450     .92525E-02     .36875E-01     .17335E+03    -.39367E+02     .15008E+01         .000      .000
   1.460     .21437E-01     .50382E-01     .27167E+03    -.56824E+02     .91598E+00         .000      .000
   1.470     .27354E-01     .58186E-01     .33659E+03    -.66331E+02     .26745E+00         .000      .000
   1.480     .26926E-01     .58929E-01     .34952E+03    -.65526E+02    -.33899E+00         .000      .000
   1.490     .20970E-01     .52668E-01     .31252E+03    -.55861E+02    -.82780E+00         .000      .000
   1.500     .10886E-01     .40588E-01     .24063E+03    -.40591E+02    -.11633E+01         .000      .000
   1.510    -.17638E-02     .24435E-01     .15000E+03    -.22619E+02    -.13404E+01         .000      .000
   1.520    -.15384E-01     .61110E-02     .52466E+02    -.39577E+01    -.13569E+01         .000      .000
   1.530    -.28426E-01    -.12519E-01    -.43069E+02     .13803E+02    -.12314E+01         .000      .000
   1.540    -.39646E-01    -.29744E-01    -.12911E+03     .29353E+02    -.99666E+00         .000      .000
   1.550    -.47992E-01    -.44128E-01    -.20092E+03     .41988E+02    -.65216E+00         .000      .000
   1.560    -.52383E-01    -.54525E-01    -.25656E+03     .51415E+02    -.21621E+00         .000      .000
   1.570    -.52258E-01    -.60023E-01    -.29259E+03     .56816E+02     .23701E+00         .000      .000
   1.580    -.47773E-01    -.60014E-01    -.30323E+03     .57145E+02     .65104E+00         .000      .000
   1.590    -.39469E-01    -.54375E-01    -.28637E+03     .52308E+02     .99565E+00         .000      .000
   1.600    -.28191E-01    -.43478E-01    -.24327E+03     .42578E+02     .12411E+01         .000      .000
   1.610    -.15009E-01    -.28119E-01    -.17384E+03     .27872E+02     .13782E+01         .000      .000
   1.620    -.95662E-03    -.96206E-02    -.79912E+02     .88245E+01     .14171E+01         .000      .000
   1.630     .12936E-01     .10131E-01     .29673E+02    -.12472E+02     .13379E+01         .000      .000
   1.640     .25322E-01     .28885E-01     .14053E+03    -.33064E+02     .11162E+01         .000      .000
   1.650     .34866E-01     .44366E-01     .23559E+03    -.49621E+02     .77762E+00         .000      .000
   1.660     .40610E-01     .54700E-01     .29851E+03    -.59280E+02     .36040E+00         .000      .000
   1.670     .41962E-01     .58838E-01     .32111E+03    -.61125E+02    -.90368E-01         .000      .000
   1.680     .38826E-01     .56668E-01     .30573E+03    -.56082E+02    -.53466E+00         .000      .000
   1.690     .31391E-01     .48828E-01     .25973E+03    -.45691E+02    -.94306E+00         .000      .000
   1.700     .20195E-01     .36477E-01     .19169E+03    -.31642E+02    -.12829E+01         .000      .000
   1.710     .60202E-02     .21103E-01     .11094E+03    -.15757E+02    -.15372E+01         .000      .000
   1.720    -.10186E-01     .43399E-02     .27230E+02     .11621E+00    -.16834E+01         .000      .000
   1.730    -.27237E-01    -.12240E-01    -.51119E+02     .14524E+02    -.17066E+01         .000      .000
   1.740    -.43935E-01    -.27263E-01    -.11827E+03     .26482E+02    -.16152E+01         .000      .000
   1.750    -.59133E-01    -.39630E-01    -.17012E+03     .35299E+02    -.14019E+01         .000      .000
   1.760    -.71554E-01    -.48562E-01    -.20443E+03     .40654E+02    -.10628E+01         .000      .000
   1.770    -.80072E-01    -.53606E-01    -.22005E+03     .42353E+02    -.62866E+00         .000      .000
   1.780    -.83979E-01    -.54652E-01    -.21624E+03     .40362E+02    -.15004E+00         .000      .000
   1.790    -.83100E-01    -.51983E-01    -.19554E+03     .35437E+02     .32062E+00         .000      .000
   1.800    -.77731E-01    -.46183E-01    -.16420E+03     .28892E+02     .74230E+00         .000      .000
   1.810    -.68463E-01    -.37938E-01    -.12774E+03     .21618E+02     .11017E+01         .000      .000
   1.820    -.55850E-01    -.27893E-01    -.88010E+02     .13759E+02     .14154E+01         .000      .000
   1.830    -.40333E-01    -.16681E-01    -.44459E+02     .51515E+01     .16756E+01         .000      .000
