


 TIME HISTORY FOR STORY NO.  5



    TIME   DISPLACEMENT    STORY DRIFT    STORY SHEAR   ACCELERATION     VELOCITY          DAMAGE    DAMAGE
                                                                                          BEAM-SLAB  COL-WALL

    .000     .00000E+00     .00000E+00     .00000E+00     .00000E+00     .00000E+00         .000      .000
    .010    -.14319E-05     .28985E-10    -.49002E-03     .16010E-03    -.12120E-04         .000      .000
    .020    -.25911E-06     .74788E-07     .91432E-03    -.94721E-03    -.51722E-04         .000      .000
    .030    -.25028E-05     .12974E-06     .89640E-02    -.10133E-02    -.98620E-04         .000      .000
    .040    -.22104E-05    -.53687E-07    -.18160E-02     .18835E-02    -.14359E-03         .000      .000
    .050    -.55782E-05    -.55853E-07     .46625E-02    -.38865E-03    -.24751E-03         .000      .000
    .060    -.74333E-05    -.12039E-06     .67252E-02    -.70966E-03    -.43369E-03         .000      .000
    .070    -.14379E-04    -.17742E-06     .15902E-01    -.22284E-02    -.65673E-03         .000      .000
    .080    -.20685E-04    -.36149E-06     .21247E-01    -.22041E-02    -.91678E-03         .000      .000
    .090    -.32887E-04    -.63960E-06     .41249E-01    -.37257E-02    -.12258E-02         .000      .000
    .100    -.45351E-04    -.14603E-05     .52381E-01    -.16673E-02    -.15813E-02         .000      .000
    .110    -.64607E-04    -.28966E-05     .72003E-01    -.13636E-02    -.19636E-02         .000      .000
    .120    -.84756E-04    -.53457E-05     .83994E-01     .17648E-03    -.23878E-02         .000      .000
    .130    -.11247E-03    -.89174E-05     .10537E+00    -.10134E-02    -.28422E-02         .000      .000
    .140    -.14160E-03    -.14073E-04     .11519E+00    -.12634E-03    -.32993E-02         .000      .000
    .150    -.17691E-03    -.20894E-04     .13139E+00    -.13214E-02    -.32906E-02         .000      .000
    .160    -.20687E-03    -.29867E-04     .13581E+00     .37947E-03    -.31186E-02         .000      .000
    .170    -.24211E-03    -.41498E-04     .12659E+00     .76773E-02    -.37878E-02         .000      .000
    .180    -.28489E-03    -.56136E-04     .45959E-01     .23432E-01    -.51444E-02         .000      .000
    .190    -.34596E-03    -.71427E-04    -.15502E-01     .14219E-01    -.68002E-02         .000      .000
    .200    -.42202E-03    -.85461E-04     .26146E-01    -.19752E-01    -.87864E-02         .000      .000
    .210    -.52158E-03    -.99132E-04     .14510E+00    -.43128E-01    -.10723E-01         .000      .000
    .220    -.63444E-03    -.11513E-03     .23690E+00    -.29115E-01    -.12049E-01         .000      .000
    .230    -.76110E-03    -.13544E-03     .30726E+00     .50653E-02    -.12938E-01         .000      .000
    .240    -.89212E-03    -.16241E-03     .32312E+00     .45051E-01    -.13511E-01         .000      .000
    .250    -.10302E-02    -.19718E-03     .29199E+00     .64663E-01    -.13755E-01         .000      .000
    .260    -.11645E-02    -.23970E-03     .22959E+00     .54796E-01    -.13180E-01         .000      .000
    .270    -.12875E-02    -.28924E-03     .16282E+00     .26523E-01    -.10708E-01         .000      .000
    .280    -.13737E-02    -.34592E-03     .33968E-01     .17087E-01    -.67477E-02         .000      .000
    .290    -.14212E-02    -.40992E-03    -.24044E+00     .53231E-01    -.23941E-02         .000      .000
    .300    -.14216E-02    -.47912E-03    -.74952E+00     .12088E+00     .19240E-02         .000      .000
    .310    -.13886E-02    -.54555E-03    -.13357E+01     .14612E+00     .44604E-02         .000      .000
    .320    -.13414E-02    -.59951E-03    -.18369E+01     .10500E+00     .43070E-02         .000      .000
    .330    -.13059E-02    -.63169E-03    -.21447E+01     .15781E-01     .31262E-02         .000      .000
    .340    -.12735E-02    -.63518E-03    -.21527E+01    -.81197E-01     .35645E-02         .000      .000
    .350    -.12152E-02    -.61010E-03    -.18600E+01    -.11732E+00     .98323E-02         .000      .000
    .360    -.10515E-02    -.56578E-03    -.15370E+01    -.26439E-01     .23713E-01         .000      .000
    .370    -.73933E-03    -.51529E-03    -.15088E+01     .18612E+00     .38080E-01         .000      .000
    .380    -.32282E-03    -.46677E-03    -.21375E+01     .43935E+00     .42532E-01         .000      .000
    .390     .67458E-04    -.40662E-03    -.31927E+01     .48521E+00     .33739E-01         .000      .000
    .400     .32434E-03    -.29929E-03    -.35524E+01     .84654E-01     .16627E-01         .000      .000
    .410     .39743E-03    -.11869E-03    -.22232E+01    -.60460E+00    -.11103E-02         .000      .000
    .420     .30365E-03     .11988E-03     .35738E+00    -.10073E+01    -.18185E-01         .000      .000
    .430     .39894E-04     .36739E-03     .27976E+01    -.70799E+00    -.33362E-01         .000      .000
    .440    -.34781E-03     .57661E-03     .42593E+01     .48851E-01    -.44015E-01         .000      .000
    .450    -.84116E-03     .72266E-03     .53075E+01     .59201E+00    -.55099E-01         .000      .000
    .460    -.14637E-02     .78752E-03     .64126E+01     .59189E+00    -.70371E-01         .000      .000
    .470    -.22523E-02     .75737E-03     .74849E+01     .15073E+00    -.86677E-01         .000      .000
    .480    -.31900E-02     .62707E-03     .84945E+01    -.41393E+00    -.10069E+00         .000      .000
    .490    -.42475E-02     .38851E-03     .91912E+01    -.68215E+00    -.10899E+00         .000      .000
    .500    -.53233E-02     .26840E-04     .88909E+01    -.41844E+00    -.10338E+00         .000      .000
    .510    -.62672E-02    -.46546E-03     .73746E+01     .18377E+00    -.83553E-01         .000      .000
    .520    -.69822E-02    -.10869E-02     .45746E+01     .81904E+00    -.60167E-01         .000      .000
    .530    -.74875E-02    -.18171E-02     .25766E+00     .12213E+01    -.41962E-01         .000      .000
    .540    -.78528E-02    -.25932E-02    -.48970E+01     .10820E+01    -.33234E-01         .000      .000
    .550    -.81738E-02    -.33225E-02    -.93236E+01     .36006E+00    -.30921E-01         .000      .000
    .560    -.84522E-02    -.39255E-02    -.12173E+02    -.47262E+00    -.22707E-01         .000      .000
    .570    -.85863E-02    -.43617E-02    -.13634E+02    -.79063E+00    -.18126E-02         .000      .000
    .580    -.84658E-02    -.46334E-02    -.14773E+02    -.22782E+00     .25894E-01         .000      .000
    .590    -.80703E-02    -.47572E-02    -.16672E+02     .92695E+00     .52812E-01         .000      .000
    .600    -.74646E-02    -.47212E-02    -.18859E+02     .17428E+01     .62895E-01         .000      .000
    .610    -.69328E-02    -.44849E-02    -.19573E+02     .14866E+01     .36791E-01         .000      .000
    .620    -.68542E-02    -.40100E-02    -.17630E+02     .25273E+00    -.26755E-01         .000      .000
    .630    -.75572E-02    -.32784E-02    -.12098E+02    -.13595E+01    -.11680E+00         .000      .000
    .640    -.92130E-02    -.23320E-02    -.27801E+01    -.24639E+01    -.21335E+00         .000      .000
    .650    -.11735E-01    -.13021E-02     .88161E+01    -.23350E+01    -.28298E+00         .000      .000
    .660    -.14710E-01    -.38863E-03     .20468E+02    -.99778E+00    -.30414E+00         .000      .000
    .670    -.17550E-01     .17637E-03     .29759E+02     .94431E+00    -.24537E+00         .000      .000
    .680    -.19320E-01     .18391E-03     .34147E+02     .26673E+01    -.97572E-01         .000      .000
    .690    -.19438E-01    -.49736E-03     .31801E+02     .36914E+01     .69243E-01         .000      .000
    .700    -.18090E-01    -.18788E-02     .19890E+02     .42009E+01     .18941E+00         .000      .000
    .710    -.15816E-01    -.37297E-02     .16215E-01     .34042E+01     .25948E+00         .000      .000
    .720    -.13044E-01    -.56051E-02    -.18733E+02     .35461E+00     .28662E+00         .000      .000
    .730    -.10279E-01    -.71244E-02    -.30439E+02    -.31846E+01     .25630E+00         .000      .000
    .740    -.80546E-02    -.81165E-02    -.38117E+02    -.41451E+01     .18589E+00         .000      .000
    .750    -.65056E-02    -.84919E-02    -.44104E+02    -.22544E+01     .13149E+00         .000      .000
    .760    -.51725E-02    -.81865E-02    -.45144E+02     .23855E+00     .15187E+00         .000      .000
    .770    -.31958E-02    -.72705E-02    -.39907E+02     .19135E+01     .25373E+00         .000      .000
    .780    -.27459E-04    -.59611E-02    -.33256E+02     .31082E+01     .37699E+00         .000      .000
    .790     .41984E-02    -.44489E-02    -.31244E+02     .40509E+01     .45644E+00         .000      .000
    .800     .88787E-02    -.27075E-02    -.32668E+02     .33641E+01     .46850E+00         .000      .000
    .810     .13383E-01    -.53966E-03    -.29341E+02    -.11284E+00     .42483E+00         .000      .000
    .820     .17239E-01     .21643E-02    -.16104E+02    -.46903E+01     .34140E+00         .000      .000
    .830     .20138E-01     .52642E-02     .33194E+01    -.68099E+01     .23741E+00         .000      .000
    .840     .21946E-01     .84578E-02     .21917E+02    -.48353E+01     .12102E+00         .000      .000
    .850     .22530E-01     .11446E-01     .36959E+02    -.69892E+00    -.49836E-02         .000      .000
    .860     .21828E-01     .14003E-01     .50277E+02     .21118E+01    -.13752E+00         .000      .000
    .870     .19728E-01     .15951E-01     .64625E+02     .15953E+01    -.28562E+00         .000      .000
    .880     .16069E-01     .17111E-01     .79330E+02    -.12383E+01    -.44696E+00         .000      .000
    .890     .10850E-01     .17314E-01     .91092E+02    -.39329E+01    -.58933E+00         .000      .000
    .900     .45217E-02     .16438E-01     .97678E+02    -.47504E+01    -.65972E+00         .000      .000
    .910    -.18932E-02     .14380E-01     .97649E+02    -.31764E+01    -.59491E+00         .000      .000
    .920    -.68087E-02     .11035E-01     .88131E+02     .38058E+00    -.36025E+00         .000      .000
    .930    -.87223E-02     .63584E-02     .64964E+02     .48915E+01    -.13350E-01         .000      .000
    .940    -.72443E-02     .50221E-03     .24463E+02     .88917E+01     .28243E+00         .000      .000
    .950    -.36985E-02    -.59896E-02    -.31071E+02     .10019E+02     .39002E+00         .000      .000
    .960    -.59065E-04    -.12111E-01    -.87357E+02     .55020E+01     .31253E+00         .000      .000
    .970     .23670E-02    -.16707E-01    -.12310E+03    -.43815E+01     .18067E+00         .000      .000
    .980     .38062E-02    -.19081E-01    -.12926E+03    -.13306E+02     .12721E+00         .000      .000
    .990     .53674E-02    -.19305E-01    -.11806E+03    -.13006E+02     .21266E+00         .000      .000
   1.000     .84491E-02    -.17921E-01    -.10986E+03    -.17599E+01     .41365E+00         .000      .000
   1.010     .13622E-01    -.15375E-01    -.11143E+03     .12364E+02     .60538E+00         .000      .000
   1.020     .20151E-01    -.11760E-01    -.11355E+03     .18424E+02     .67232E+00         .000      .000
   1.030     .26519E-01    -.69003E-02    -.10141E+03     .11255E+02     .57439E+00         .000      .000
   1.040     .31078E-01    -.64845E-03    -.65578E+02    -.45908E+01     .31170E+00         .000      .000
   1.050     .32243E-01     .67834E-02    -.10729E+02    -.17922E+02    -.99910E-01         .000      .000
   1.060     .28931E-01     .14785E-01     .49503E+02    -.20194E+02    -.55481E+00         .000      .000
   1.070     .21593E-01     .22555E-01     .10779E+03    -.12385E+02    -.87788E+00         .000      .000
   1.080     .12067E-01     .29146E-01     .16430E+03    -.14788E+01    -.99546E+00         .000      .000
   1.090     .21849E-02     .33421E-01     .21106E+03     .74682E+01    -.96379E+00         .000      .000
   1.100    -.70074E-02     .34377E-01     .23229E+03     .12216E+02    -.87250E+00         .000      .000
   1.110    -.15256E-01     .31677E-01     .22354E+03     .10671E+02    -.77903E+00         .000      .000
   1.120    -.22622E-01     .25711E-01     .19471E+03     .29104E+01    -.69504E+00         .000      .000
   1.130    -.29200E-01     .17200E-01     .15537E+03    -.62824E+01    -.62183E+00         .000      .000
   1.140    -.35151E-01     .68547E-02     .10557E+03    -.10061E+02    -.57435E+00         .000      .000
   1.150    -.40758E-01    -.46535E-02     .41599E+02    -.55409E+01    -.54820E+00         .000      .000
   1.160    -.46018E-01    -.16527E-01    -.32536E+02     .32073E+01    -.49522E+00         .000      .000
   1.170    -.50467E-01    -.27840E-01    -.10341E+03     .91675E+01    -.38577E+00         .000      .000
   1.180    -.53586E-01    -.37762E-01    -.16053E+03     .93197E+01    -.23200E+00         .000      .000
   1.190    -.55011E-01    -.45674E-01    -.20386E+03     .60068E+01    -.48376E-01         .000      .000
   1.200    -.54380E-01    -.51074E-01    -.23592E+03     .26756E+01     .18802E+00         .000      .000
   1.210    -.50986E-01    -.53532E-01    -.25488E+03     .10559E+01     .50394E+00         .000      .000
   1.220    -.44108E-01    -.52828E-01    -.25856E+03     .17025E+01     .87797E+00         .000      .000
   1.230    -.33315E-01    -.49042E-01    -.25003E+03     .44911E+01     .12852E+01         .000      .000
   1.240    -.18463E-01    -.42415E-01    -.23291E+03     .75027E+01     .16737E+01         .000      .000
   1.250    -.26506E-03    -.33210E-01    -.20661E+03     .80917E+01     .19344E+01         .000      .000
   1.260     .19525E-01    -.21700E-01    -.16994E+03     .51616E+01     .19854E+01         .000      .000
   1.270     .38869E-01    -.81439E-02    -.11975E+03    -.11016E+01     .18648E+01         .000      .000
   1.280     .56606E-01     .71025E-02    -.50468E+02    -.90148E+01     .16808E+01         .000      .000
   1.290     .72506E-01     .23294E-01     .35692E+02    -.14224E+02     .15051E+01         .000      .000
   1.300     .86842E-01     .39215E-01     .12243E+03    -.12299E+02     .13707E+01         .000      .000
   1.310     .99984E-01     .53546E-01     .19242E+03    -.42835E+01     .12537E+01         .000      .000
   1.320     .11160E+00     .65291E-01     .24076E+03     .33236E+01     .10404E+01         .000      .000
   1.330     .12042E+00     .73905E-01     .27166E+03     .43364E+01     .71294E+00         .000      .000
   1.340     .12582E+00     .79265E-01     .29363E+03    -.31164E+01     .37206E+00         .000      .000
   1.350     .12785E+00     .81402E-01     .31345E+03    -.14257E+02     .30832E-01         .000      .000
   1.360     .12635E+00     .80152E-01     .32020E+03    -.19118E+02    -.33150E+00         .000      .000
   1.370     .12130E+00     .75390E-01     .29765E+03    -.13409E+02    -.66791E+00         .000      .000
   1.380     .11329E+00     .67453E-01     .25062E+03    -.35588E+01    -.91871E+00         .000      .000
   1.390     .10325E+00     .56973E-01     .19539E+03     .24820E+01    -.10755E+01         .000      .000
   1.400     .92082E-01     .44551E-01     .13735E+03     .30628E+01    -.11414E+01         .000      .000
   1.410     .80729E-01     .30809E-01     .73228E+02     .87439E+00    -.11144E+01         .000      .000
   1.420     .69951E-01     .16546E-01     .28704E+01    -.11419E+01    -.10395E+01         .000      .000
   1.430     .59960E-01     .27035E-02    -.69942E+02    -.12711E+01    -.95805E+00         .000      .000
   1.440     .50858E-01    -.97318E-02    -.13827E+03     .52300E-02    -.85669E+00         .000      .000
   1.450     .42951E-01    -.19851E-01    -.19178E+03     .94700E+00    -.71837E+00         .000      .000
   1.460     .36630E-01    -.27051E-01    -.22517E+03     .14751E+01    -.53808E+00         .000      .000
   1.470     .32336E-01    -.31091E-01    -.24146E+03     .26701E+01    -.31351E+00         .000      .000
   1.480     .30409E-01    -.31937E-01    -.24381E+03     .42990E+01    -.74439E-01         .000      .000
   1.490     .30661E-01    -.29666E-01    -.23214E+03     .50880E+01     .10837E+00         .000      .000
   1.500     .32263E-01    -.24468E-01    -.20565E+03     .40390E+01     .19695E+00         .000      .000
   1.510     .34389E-01    -.16637E-01    -.16244E+03     .73458E+00     .22232E+00         .000      .000
   1.520     .36570E-01    -.66620E-02    -.10102E+03    -.37208E+01     .20671E+00         .000      .000
   1.530     .38346E-01     .46385E-02    -.27679E+02    -.61910E+01     .13904E+00         .000      .000
   1.540     .39117E-01     .16214E-01     .44994E+02    -.46920E+01     .13669E-02         .000      .000
   1.550     .38100E-01     .27077E-01     .11011E+03    -.13468E+01    -.21947E+00         .000      .000
   1.560     .34487E-01     .36427E-01     .16885E+03    -.42219E-01    -.51376E+00         .000      .000
   1.570     .27721E-01     .43582E-01     .22311E+03    -.23710E+01    -.83912E+00         .000      .000
   1.580     .17801E-01     .47896E-01     .26991E+03    -.63174E+01    -.11342E+01         .000      .000
   1.590     .52257E-02     .48761E-01     .30125E+03    -.81528E+01    -.13713E+01         .000      .000
   1.600    -.93953E-02     .45714E-01     .30785E+03    -.56309E+01    -.15396E+01         .000      .000
   1.610    -.25071E-01     .38615E-01     .28561E+03    -.26856E+00    -.15608E+01         .000      .000
   1.620    -.39910E-01     .27735E-01     .23949E+03     .40197E+01    -.13734E+01         .000      .000
   1.630    -.52090E-01     .13602E-01     .17453E+03     .59281E+01    -.10511E+01         .000      .000
   1.640    -.60794E-01    -.30897E-02     .86231E+02     .76412E+01    -.68659E+00         .000      .000
   1.650    -.65821E-01    -.21203E-01    -.25197E+02     .91931E+01    -.32273E+00         .000      .000
   1.660    -.67364E-01    -.39077E-01    -.14246E+03     .79203E+01     .58460E-02         .000      .000
   1.670    -.65934E-01    -.54963E-01    -.24673E+03     .39414E+01     .26644E+00         .000      .000
   1.680    -.62363E-01    -.67414E-01    -.32968E+03     .55432E+00     .43019E+00         .000      .000
   1.690    -.57612E-01    -.75348E-01    -.38817E+03     .14828E+00     .50982E+00         .000      .000
   1.700    -.52236E-01    -.78036E-01    -.41701E+03     .18821E+01     .56770E+00         .000      .000
   1.710    -.46093E-01    -.75182E-01    -.40969E+03     .33438E+01     .67413E+00         .000      .000
   1.720    -.38421E-01    -.67070E-01    -.36618E+03     .37229E+01     .88047E+00         .000      .000
   1.730    -.28254E-01    -.54544E-01    -.29630E+03     .41336E+01     .11561E+01         .000      .000
   1.740    -.15339E-01    -.38775E-01    -.21401E+03     .54131E+01     .14197E+01         .000      .000
   1.750     .58660E-04    -.20937E-01    -.12896E+03     .61219E+01     .16580E+01         .000      .000
   1.760     .17670E-01    -.20286E-02    -.40451E+02     .34467E+01     .18503E+01         .000      .000
   1.770     .36589E-01     .16963E-01     .52229E+02    -.20407E+01     .19010E+01         .000      .000
   1.780     .55106E-01     .34945E-01     .13854E+03    -.63159E+01     .17778E+01         .000      .000
   1.790     .71707E-01     .50984E-01     .21024E+03    -.80898E+01     .15230E+01         .000      .000
   1.800     .85161E-01     .64423E-01     .27075E+03    -.91263E+01     .11461E+01         .000      .000
   1.810     .94343E-01     .74652E-01     .32063E+03    -.96803E+01     .68345E+00         .000      .000
   1.820     .98822E-01     .81108E-01     .35471E+03    -.93600E+01     .21827E+00         .000      .000
   1.830     .98871E-01     .83416E-01     .37111E+03    -.86222E+01    -.19809E+00         .000      .000
