


 TIME HISTORY FOR STORY NO.  5



    TIME   DISPLACEMENT    STORY DRIFT    STORY SHEAR   ACCELERATION     VELOCITY          DAMAGE    DAMAGE
                                                                                          BEAM-SLAB  COL-WALL

    .000     .00000E+00     .00000E+00     .00000E+00     .00000E+00     .00000E+00         .000      .000
    .010    -.11521E-05    -.60683E-10    -.23339E-03     .17538E-03    -.21960E-03         .000      .000
    .020    -.44529E-05     .44846E-07    -.14376E-02     .11144E-03    -.46445E-03         .000      .000
    .030    -.10535E-04     .31929E-06     .61205E-02    -.25396E-02    -.73784E-03         .000      .000
    .040    -.19363E-04     .78701E-06     .27908E-01    -.59871E-02    -.10557E-02         .000      .000
    .050    -.31633E-04     .10210E-05     .52605E-01    -.57542E-02    -.13676E-02         .000      .000
    .060    -.46354E-04     .57249E-06     .70795E-01    -.20282E-02    -.15725E-02         .000      .000
    .070    -.62750E-04    -.85999E-06     .87667E-01     .13762E-02    -.16781E-02         .000      .000
    .080    -.79782E-04    -.36918E-05     .98760E-01     .41396E-02    -.17431E-02         .000      .000
    .090    -.97719E-04    -.82442E-05     .96323E-01     .61111E-02    -.18404E-02         .000      .000
    .100    -.11722E-03    -.14489E-04     .80681E-01     .59993E-02    -.21256E-02         .000      .000
    .110    -.14092E-03    -.22067E-04     .60421E-01     .29113E-02    -.26171E-02         .000      .000
    .120    -.16962E-03    -.30467E-04     .45168E-01    -.27278E-02    -.31264E-02         .000      .000
    .130    -.20304E-03    -.39306E-04     .48377E-01    -.88059E-02    -.35122E-02         .000      .000
    .140    -.23959E-03    -.48868E-04     .59959E-01    -.78684E-02    -.38127E-02         .000      .000
    .150    -.27851E-03    -.59835E-04     .54524E-01     .34095E-02    -.38783E-02         .000      .000
    .160    -.31573E-03    -.72515E-04     .25389E-01     .16840E-01    -.35215E-02         .000      .000
    .170    -.34828E-03    -.86778E-04    -.99660E-02     .22900E-01    -.29677E-02         .000      .000
    .180    -.37491E-03    -.10262E-03    -.62675E-01     .24413E-01    -.23620E-02         .000      .000
    .190    -.39527E-03    -.11950E-03    -.14383E+00     .22853E-01    -.16812E-02         .000      .000
    .200    -.40744E-03    -.13607E-03    -.23138E+00     .15923E-01    -.67174E-03         .000      .000
    .210    -.40707E-03    -.15095E-03    -.30657E+00     .80061E-02     .82819E-03         .000      .000
    .220    -.39013E-03    -.16351E-03    -.38400E+00     .10095E-01     .25554E-02         .000      .000
    .230    -.35661E-03    -.17334E-03    -.49702E+00     .26821E-01     .40886E-02         .000      .000
    .240    -.31129E-03    -.17905E-03    -.64442E+00     .44171E-01     .47364E-02         .000      .000
    .250    -.26406E-03    -.17785E-03    -.76759E+00     .39971E-01     .47247E-02         .000      .000
    .260    -.21867E-03    -.16673E-03    -.78792E+00     .52355E-02     .41501E-02         .000      .000
    .270    -.18516E-03    -.14449E-03    -.66704E+00    -.37209E-01     .23632E-02         .000      .000
    .280    -.17344E-03    -.11292E-03    -.48078E+00    -.49147E-01    -.23630E-04         .000      .000
    .290    -.18545E-03    -.74130E-04    -.24756E+00    -.37660E-01    -.23681E-02         .000      .000
    .300    -.21899E-03    -.31021E-04     .82799E-01    -.24702E-01    -.41738E-02         .000      .000
    .310    -.26511E-03     .10690E-04     .45924E+00    -.82913E-02    -.48338E-02         .000      .000
    .320    -.31373E-03     .44163E-04     .78886E+00     .13954E-01    -.49133E-02         .000      .000
    .330    -.36588E-03     .63507E-04     .98998E+00     .40113E-01    -.57450E-02         .000      .000
    .340    -.43150E-03     .65980E-04     .10251E+01     .52966E-01    -.74465E-02         .000      .000
    .350    -.51676E-03     .53427E-04     .10012E+01     .19328E-01    -.97390E-02         .000      .000
    .360    -.63243E-03     .28595E-04     .10443E+01    -.48280E-01    -.13858E-01         .000      .000
    .370    -.79650E-03    -.87121E-05     .10870E+01    -.84479E-01    -.18731E-01         .000      .000
    .380    -.99879E-03    -.58701E-04     .10724E+01    -.74647E-01    -.21143E-01         .000      .000
    .390    -.12072E-02    -.12137E-03     .11031E+01    -.44847E-01    -.19900E-01         .000      .000
    .400    -.13851E-02    -.20192E-03     .10485E+01     .34146E-01    -.15140E-01         .000      .000
    .410    -.15007E-02    -.30621E-03     .61989E+00     .16563E+00    -.76164E-02         .000      .000
    .420    -.15352E-02    -.43155E-03    -.20820E+00     .26693E+00     .53345E-03         .000      .000
    .430    -.14979E-02    -.56604E-03    -.12472E+01     .26329E+00     .62924E-02         .000      .000
    .440    -.14282E-02    -.69205E-03    -.22930E+01     .15222E+00     .64148E-02         .000      .000
    .450    -.13898E-02    -.78917E-03    -.31191E+01    -.17983E-01     .51844E-03         .000      .000
    .460    -.14337E-02    -.83879E-03    -.34676E+01    -.18543E+00    -.10105E-01         .000      .000
    .470    -.16090E-02    -.83155E-03    -.31471E+01    -.27936E+00    -.25809E-01         .000      .000
    .480    -.19547E-02    -.77298E-03    -.22661E+01    -.23705E+00    -.42946E-01         .000      .000
    .490    -.24526E-02    -.67860E-03    -.93974E+00    -.11540E+00    -.55562E-01         .000      .000
    .500    -.30451E-02    -.57243E-03     .83749E+00    -.45554E-02    -.61957E-01         .000      .000
    .510    -.36759E-02    -.49089E-03     .26210E+01     .12876E+00    -.63583E-01         .000      .000
    .520    -.42918E-02    -.47005E-03     .37666E+01     .29098E+00    -.57758E-01         .000      .000
    .530    -.47894E-02    -.52884E-03     .41933E+01     .35614E+00    -.39495E-01         .000      .000
    .540    -.50411E-02    -.67419E-03     .40814E+01     .29781E+00    -.90106E-02         .000      .000
    .550    -.49368E-02    -.91258E-03     .29729E+01     .31359E+00     .31385E-01         .000      .000
    .560    -.43910E-02    -.12369E-02     .25297E+00     .50478E+00     .78454E-01         .000      .000
    .570    -.33595E-02    -.16093E-02    -.39104E+01     .71137E+00     .12793E+00         .000      .000
    .580    -.18494E-02    -.19653E-02    -.88035E+01     .73518E+00     .17230E+00         .000      .000
    .590     .43740E-04    -.22268E-02    -.13686E+02     .52848E+00     .20386E+00         .000      .000
    .600     .21868E-02    -.23110E-02    -.17886E+02     .16382E+00     .22315E+00         .000      .000
    .610     .44711E-02    -.21394E-02    -.20517E+02    -.27158E+00     .23181E+00         .000      .000
    .620     .67910E-02    -.16610E-02    -.20958E+02    -.59374E+00     .23098E+00         .000      .000
    .630     .90634E-02    -.86659E-03    -.19384E+02    -.61953E+00     .22200E+00         .000      .000
    .640     .11207E-01     .22178E-03    -.16031E+02    -.42841E+00     .20579E+00         .000      .000
    .650     .13156E-01     .15586E-02    -.10918E+02    -.27136E+00     .18256E+00         .000      .000
    .660     .14816E-01     .30767E-02    -.41063E+01    -.33557E+00     .14670E+00         .000      .000
    .670     .16023E-01     .46891E-02     .39868E+01    -.60463E+00     .90720E-01         .000      .000
    .680     .16565E-01     .63005E-02     .12867E+02    -.99159E+00     .15196E-01         .000      .000
    .690     .16294E-01     .78151E-02     .22502E+02    -.14602E+01    -.70047E-01         .000      .000
    .700     .15163E-01     .91228E-02     .32841E+02    -.18565E+01    -.15563E+00         .000      .000
    .710     .13213E-01     .10082E-01     .42715E+02    -.18333E+01    -.23163E+00         .000      .000
    .720     .10619E-01     .10540E-01     .50242E+02    -.12494E+01    -.28101E+00         .000      .000
    .730     .77288E-02     .10371E-01     .54224E+02    -.40492E+00    -.28987E+00         .000      .000
    .740     .49343E-02     .94904E-02     .53883E+02     .38278E+00    -.26512E+00         .000      .000
    .750     .24776E-02     .78689E-02     .47931E+02     .10575E+01    -.22500E+00         .000      .000
    .760     .45621E-03     .55743E-02     .35891E+02     .14257E+01    -.17844E+00         .000      .000
    .770    -.10920E-02     .27957E-02     .19811E+02     .11025E+01    -.13222E+00         .000      .000
    .780    -.22255E-02    -.21240E-03     .24895E+01     .24332E+00    -.96983E-01         .000      .000
    .790    -.30697E-02    -.31966E-02    -.14831E+02    -.40866E+00    -.72911E-01         .000      .000
    .800    -.36732E-02    -.59150E-02    -.31225E+02    -.43459E+00    -.45692E-01         .000      .000
    .810    -.39388E-02    -.81497E-02    -.44947E+02     .11387E-01    -.51583E-02         .000      .000
    .820    -.37346E-02    -.97477E-02    -.54976E+02     .72239E+00     .47872E-01         .000      .000
    .830    -.29440E-02    -.10625E-01    -.61660E+02     .14929E+01     .11199E+00         .000      .000
    .840    -.14817E-02    -.10730E-01    -.64944E+02     .18784E+01     .17985E+00         .000      .000
    .850     .62068E-03    -.10032E-01    -.64095E+02     .15830E+01     .23800E+00         .000      .000
    .860     .31890E-02    -.85423E-02    -.58913E+02     .77954E+00     .26951E+00         .000      .000
    .870     .58836E-02    -.63108E-02    -.49517E+02    -.17038E+00     .26300E+00         .000      .000
    .880     .83323E-02    -.34304E-02    -.35881E+02    -.10146E+01     .22158E+00         .000      .000
    .890     .10207E-01    -.49464E-04    -.17866E+02    -.16517E+01     .14784E+00         .000      .000
    .900     .11203E-01     .36063E-02     .36635E+01    -.19105E+01     .48409E-01         .000      .000
    .910     .11142E-01     .72464E-02     .26674E+02    -.17442E+01    -.60951E-01         .000      .000
    .920     .99820E-02     .10558E-01     .49440E+02    -.14323E+01    -.17105E+00         .000      .000
    .930     .77498E-02     .13225E-01     .70122E+02    -.11582E+01    -.27267E+00         .000      .000
    .940     .46191E-02     .14959E-01     .86452E+02    -.95440E+00    -.34717E+00         .000      .000
    .950     .97322E-03     .15537E-01     .96854E+02    -.84464E+00    -.37165E+00         .000      .000
    .960    -.25971E-02     .14808E-01     .99811E+02    -.58141E+00    -.33105E+00         .000      .000
    .970    -.55027E-02     .12698E-01     .93038E+02     .26376E+00    -.24688E+00         .000      .000
    .980    -.75307E-02     .92660E-02     .74510E+02     .17308E+01    -.16163E+00         .000      .000
    .990    -.87917E-02     .47689E-02     .45185E+02     .28867E+01    -.93760E-01         .000      .000
   1.000    -.95004E-02    -.32152E-03     .11090E+02     .23544E+01    -.54541E-01         .000      .000
   1.010    -.99849E-02    -.54601E-02    -.21053E+02     .24483E+00    -.45575E-01         .000      .000
   1.020    -.10427E-01    -.10174E-01    -.48794E+02    -.16872E+01    -.40356E-01         .000      .000
   1.030    -.10730E-01    -.14091E-01    -.71510E+02    -.20125E+01    -.16217E-01         .000      .000
   1.040    -.10657E-01    -.16955E-01    -.88840E+02    -.45368E+00     .35957E-01         .000      .000
   1.050    -.99173E-02    -.18623E-01    -.10105E+03     .20924E+01     .11561E+00         .000      .000
   1.060    -.82869E-02    -.19014E-01    -.10731E+03     .39369E+01     .21209E+00         .000      .000
   1.070    -.56814E-02    -.18099E-01    -.10622E+03     .39288E+01     .30663E+00         .000      .000
   1.080    -.22353E-02    -.15909E-01    -.97505E+02     .22673E+01     .37717E+00         .000      .000
   1.090     .17673E-02    -.12543E-01    -.82039E+02     .54373E-01     .41979E+00         .000      .000
   1.100     .61123E-02    -.81613E-02    -.60691E+02    -.16708E+01     .44824E+00         .000      .000
   1.110     .10712E-01    -.30145E-02    -.34421E+02    -.23005E+01     .47085E+00         .000      .000
   1.120     .15531E-01     .25409E-02    -.59269E+01    -.16239E+01     .49408E+00         .000      .000
   1.130     .20617E-01     .80957E-02     .21249E+02    -.20083E+00     .52395E+00         .000      .000
   1.140     .26021E-01     .13274E-01     .45103E+02     .80062E+00     .55668E+00         .000      .000
   1.150     .31671E-01     .17774E-01     .64514E+02     .65495E+00     .56556E+00         .000      .000
   1.160     .37128E-01     .21382E-01     .78239E+02    -.48509E+00     .51327E+00         .000      .000
   1.170     .41684E-01     .24013E-01     .85982E+02    -.21493E+01     .38549E+00         .000      .000
   1.180     .44565E-01     .25704E-01     .90117E+02    -.40577E+01     .17612E+00         .000      .000
   1.190     .45005E-01     .26529E-01     .93558E+02    -.56499E+01    -.93425E-01         .000      .000
   1.200     .42656E-01     .26518E-01     .97154E+02    -.62039E+01    -.37503E+00         .000      .000
   1.210     .37535E-01     .25628E-01     .10066E+03    -.54192E+01    -.64749E+00         .000      .000
   1.220     .29771E-01     .23745E-01     .10165E+03    -.32788E+01    -.90056E+00         .000      .000
   1.230     .19678E-01     .20763E-01     .97516E+02    -.70834E+00    -.11079E+01         .000      .000
   1.240     .78056E-02     .16681E-01     .89408E+02     .66136E+00    -.12581E+01         .000      .000
   1.250    -.52927E-02     .11554E-01     .78756E+02     .54271E+00    -.13508E+01         .000      .000
   1.260    -.18983E-01     .54515E-02     .63703E+02     .13923E+00    -.13749E+01         .000      .000
   1.270    -.32539E-01    -.14864E-02     .42728E+02     .42722E+00    -.13234E+01         .000      .000
   1.280    -.45218E-01    -.90440E-02     .15850E+02     .17066E+01    -.12018E+01         .000      .000
   1.290    -.56402E-01    -.16943E-01    -.16551E+02     .36771E+01    -.10283E+01         .000      .000
   1.300    -.65672E-01    -.24826E-01    -.52961E+02     .54618E+01    -.82154E+00         .000      .000
   1.310    -.72777E-01    -.32256E-01    -.90121E+02     .61310E+01    -.59831E+00         .000      .000
   1.320    -.77643E-01    -.38761E-01    -.12420E+03     .54835E+01    -.37661E+00         .000      .000
   1.330    -.80329E-01    -.43897E-01    -.15239E+03     .42088E+01    -.16068E+00         .000      .000
   1.340    -.80883E-01    -.47293E-01    -.17273E+03     .31812E+01     .47535E-01         .000      .000
   1.350    -.79392E-01    -.48695E-01    -.18371E+03     .29212E+01     .25197E+00         .000      .000
   1.360    -.75811E-01    -.47991E-01    -.18486E+03     .34030E+01     .46628E+00         .000      .000
   1.370    -.70057E-01    -.45214E-01    -.17605E+03     .40612E+01     .68312E+00         .000      .000
   1.380    -.62219E-01    -.40537E-01    -.15851E+03     .44633E+01     .87870E+00         .000      .000
   1.390    -.52724E-01    -.34223E-01    -.13444E+03     .42756E+01     .10020E+01         .000      .000
   1.400    -.42635E-01    -.26555E-01    -.10465E+03     .30640E+01     .98866E+00         .000      .000
   1.410    -.33407E-01    -.17814E-01    -.68145E+02     .52130E+00     .83847E+00         .000      .000
   1.420    -.26121E-01    -.83054E-02    -.21816E+02    -.33395E+01     .61180E+00         .000      .000
   1.430    -.21246E-01     .14947E-02     .35502E+02    -.70155E+01     .36343E+00         .000      .000
   1.440    -.18801E-01     .10817E-01     .96146E+02    -.76008E+01     .13135E+00         .000      .000
   1.450    -.18415E-01     .18753E-01     .14804E+03    -.41218E+01    -.39762E-01         .000      .000
   1.460    -.19297E-01     .24525E-01     .18487E+03     .76840E+00    -.12231E+00         .000      .000
   1.470    -.20554E-01     .27598E-01     .20586E+03     .37000E+01    -.11382E+00         .000      .000
   1.480    -.21335E-01     .27670E-01     .20947E+03     .36552E+01    -.33970E-01         .000      .000
   1.490    -.21132E-01     .24716E-01     .19318E+03     .18566E+01     .77020E-01         .000      .000
   1.500    -.19802E-01     .19042E-01     .15615E+03     .15364E+00     .18648E+00         .000      .000
   1.510    -.17466E-01     .11285E-01     .10198E+03    -.62488E+00     .27688E+00         .000      .000
   1.520    -.14330E-01     .23191E-02     .38327E+02    -.68583E+00     .34739E+00         .000      .000
   1.530    -.10605E-01    -.69133E-02    -.26933E+02    -.32125E+00     .39197E+00         .000      .000
   1.540    -.66010E-02    -.15522E-01    -.88286E+02     .44781E+00     .40343E+00         .000      .000
   1.550    -.25763E-02    -.22709E-01    -.14147E+03     .13047E+01     .40261E+00         .000      .000
   1.560     .14280E-02    -.27781E-01    -.18093E+03     .14564E+01     .39461E+00         .000      .000
   1.570     .51773E-02    -.30250E-01    -.20224E+03     .86521E+00     .34530E+00         .000      .000
   1.580     .81603E-02    -.29895E-01    -.20539E+03     .29156E+00     .24412E+00         .000      .000
   1.590     .99377E-02    -.26704E-01    -.19005E+03    -.40601E+00     .10612E+00         .000      .000
   1.600     .10191E-01    -.20886E-01    -.15416E+03    -.16536E+01    -.59270E-01         .000      .000
   1.610     .87404E-02    -.12974E-01    -.10029E+03    -.26932E+01    -.22781E+00         .000      .000
   1.620     .57760E-02    -.37765E-02    -.35463E+02    -.26820E+01    -.35400E+00         .000      .000
   1.630     .18696E-02     .57445E-02     .33223E+02    -.16802E+01    -.41760E+00         .000      .000
   1.640    -.23753E-02     .14565E-01     .97889E+02    -.14138E-02    -.42113E+00         .000      .000
   1.650    -.63330E-02     .21733E-01     .15022E+03     .17106E+01    -.35909E+00         .000      .000
   1.660    -.93937E-02     .26535E-01     .18573E+03     .23441E+01    -.24843E+00         .000      .000
   1.670    -.11251E-01     .28538E-01     .20228E+03     .17230E+01    -.12233E+00         .000      .000
   1.680    -.11895E-01     .27595E-01     .19760E+03     .69508E+00    -.12317E-01         .000      .000
   1.690    -.11625E-01     .23894E-01     .17254E+03    -.19847E+00     .59453E-01         .000      .000
   1.700    -.10855E-01     .17921E-01     .13160E+03    -.86482E+00     .86699E-01         .000      .000
   1.710    -.10055E-01     .10360E-01     .80883E+02    -.12775E+01     .64715E-01         .000      .000
   1.720    -.96839E-02     .19733E-02     .26018E+02    -.12667E+01     .57353E-02         .000      .000
   1.730    -.99978E-02    -.64651E-02    -.27903E+02    -.84477E+00    -.70451E-01         .000      .000
   1.740    -.11115E-01    -.14237E-01    -.75855E+02    -.23593E+00    -.15323E+00         .000      .000
   1.750    -.13002E-01    -.20748E-01    -.11430E+03     .44993E+00    -.21783E+00         .000      .000
   1.760    -.15328E-01    -.25553E-01    -.14074E+03     .99344E+00    -.23944E+00         .000      .000
   1.770    -.17644E-01    -.28391E-01    -.15359E+03     .13572E+01    -.21703E+00         .000      .000
   1.780    -.19551E-01    -.29212E-01    -.15428E+03     .19506E+01    -.15937E+00         .000      .000
   1.790    -.20745E-01    -.28115E-01    -.14529E+03     .27158E+01    -.76088E-01         .000      .000
   1.800    -.21032E-01    -.25288E-01    -.12745E+03     .29867E+01     .19211E-01         .000      .000
   1.810    -.20350E-01    -.21009E-01    -.10143E+03     .24257E+01     .11783E+00         .000      .000
   1.820    -.18638E-01    -.15645E-01    -.69368E+02     .13502E+01     .22774E+00         .000      .000
   1.830    -.15768E-01    -.96328E-02    -.34243E+02     .37150E+00     .34600E+00         .000      .000
