


 TIME HISTORY FOR STORY NO.  6



    TIME   DISPLACEMENT    STORY DRIFT    STORY SHEAR   ACCELERATION     VELOCITY          DAMAGE    DAMAGE
                                                                                          BEAM-SLAB  COL-WALL

    .000     .00000E+00     .00000E+00     .00000E+00     .00000E+00     .00000E+00         .000      .000
    .010    -.11525E-05    -.37163E-09    -.20192E-05     .97314E-04    -.21978E-03         .000      .000
    .020    -.44593E-05    -.64083E-08    -.98455E-03     .53622E-03    -.46477E-03         .000      .000
    .030    -.10473E-04     .61506E-07    -.54442E-02     .16190E-02    -.71759E-03         .000      .000
    .040    -.18823E-04     .54061E-06    -.59465E-02     .11828E-02    -.97492E-03         .000      .000
    .050    -.29965E-04     .16681E-05     .11639E-01    -.32804E-02    -.12308E-02         .000      .000
    .060    -.43368E-04     .29858E-05     .47527E-01    -.10658E-01    -.14645E-02         .000      .000
    .070    -.59299E-04     .34502E-05     .86130E-01    -.17651E-01    -.17106E-02         .000      .000
    .080    -.77745E-04     .20367E-05     .11500E+00    -.22260E-01    -.20057E-02         .000      .000
    .090    -.99697E-04    -.19784E-05     .12615E+00    -.23066E-01    -.23856E-02         .000      .000
    .100    -.12607E-03    -.88531E-05     .11368E+00    -.19080E-01    -.29487E-02         .000      .000
    .110    -.15910E-03    -.18175E-04     .78338E-01    -.11049E-01    -.36399E-02         .000      .000
    .120    -.19848E-03    -.28861E-04     .31700E-01    -.17978E-02    -.42159E-02         .000      .000
    .130    -.24252E-03    -.39474E-04    -.50779E-02     .39469E-02    -.45254E-02         .000      .000
    .140    -.28853E-03    -.48949E-04    -.37936E-02     .10715E-02    -.47007E-02         .000      .000
    .150    -.33620E-03    -.57691E-04     .42199E-01    -.95854E-02    -.47756E-02         .000      .000
    .160    -.38347E-03    -.67743E-04     .97433E-01    -.19218E-01    -.46735E-02         .000      .000
    .170    -.42953E-03    -.81251E-04     .11413E+00    -.19647E-01    -.45278E-02         .000      .000
    .180    -.47381E-03    -.98894E-04     .78456E-01    -.10222E-01    -.43173E-02         .000      .000
    .190    -.51517E-03    -.11991E-03    -.40462E-02     .76665E-02    -.38959E-02         .000      .000
    .200    -.54978E-03    -.14234E-03    -.12238E+00     .31066E-01    -.28929E-02         .000      .000
    .210    -.57034E-03    -.16326E-03    -.24464E+00     .52471E-01    -.10860E-02         .000      .000
    .220    -.57004E-03    -.17991E-03    -.32674E+00     .64007E-01     .11554E-02         .000      .000
    .230    -.54799E-03    -.19138E-03    -.35701E+00     .66877E-01     .31708E-02         .000      .000
    .240    -.51010E-03    -.19881E-03    -.38776E+00     .74588E-01     .41505E-02         .000      .000
    .250    -.46693E-03    -.20287E-03    -.49171E+00     .99405E-01     .45481E-02         .000      .000
    .260    -.41927E-03    -.20060E-03    -.67350E+00     .13628E+00     .49016E-02         .000      .000
    .270    -.37043E-03    -.18527E-03    -.82019E+00     .15755E+00     .47846E-02         .000      .000
    .280    -.32457E-03    -.15113E-03    -.77340E+00     .13576E+00     .43656E-02         .000      .000
    .290    -.28449E-03    -.99039E-04    -.50595E+00     .75082E-01     .35404E-02         .000      .000
    .300    -.25483E-03    -.35837E-04    -.10183E+00    -.65661E-02     .24007E-02         .000      .000
    .310    -.23604E-03     .29074E-04     .36462E+00    -.96488E-01     .13969E-02         .000      .000
    .320    -.22856E-03     .85172E-04     .82073E+00    -.17970E+00    -.10034E-03         .000      .000
    .330    -.24381E-03     .12207E-03     .11765E+01    -.23763E+00    -.33184E-02         .000      .000
    .340    -.29980E-03     .13170E-03     .13232E+01    -.24883E+00    -.79904E-02         .000      .000
    .350    -.40471E-03     .11205E-03     .11782E+01    -.20318E+00    -.12992E-01         .000      .000
    .360    -.56174E-03     .70693E-04     .83563E+00    -.13155E+00    -.18640E-01         .000      .000
    .370    -.77605E-03     .20455E-04     .56673E+00    -.89209E-01    -.23864E-01         .000      .000
    .380    -.10299E-02    -.31090E-04     .53535E+00    -.95608E-01    -.26346E-01         .000      .000
    .390    -.12923E-02    -.85168E-04     .71121E+00    -.13990E+00    -.25634E-01         .000      .000
    .400    -.15345E-02    -.14943E-03     .10475E+01    -.21220E+00    -.22511E-01         .000      .000
    .410    -.17394E-02    -.23868E-03     .13710E+01    -.26548E+00    -.18407E-01         .000      .000
    .420    -.19051E-02    -.36989E-03     .12770E+01    -.21440E+00    -.15005E-01         .000      .000
    .430    -.20449E-02    -.54699E-03     .43141E+00    -.10059E-01    -.13244E-01         .000      .000
    .440    -.21777E-02    -.74949E-03    -.11128E+01     .31348E+00    -.13821E-01         .000      .000
    .450    -.23250E-02    -.93520E-03    -.29140E+01     .65446E+00    -.15533E-01         .000      .000
    .460    -.24883E-02    -.10546E-02    -.43419E+01     .88869E+00    -.17259E-01         .000      .000
    .470    -.26779E-02    -.10690E-02    -.47989E+01     .91018E+00    -.21338E-01         .000      .000
    .480    -.29225E-02    -.96780E-03    -.39482E+01     .67857E+00    -.27640E-01         .000      .000
    .490    -.32299E-02    -.77727E-03    -.20059E+01     .26600E+00    -.33658E-01         .000      .000
    .500    -.35941E-02    -.54899E-03     .45630E+00    -.21511E+00    -.39188E-01         .000      .000
    .510    -.40178E-02    -.34190E-03     .29872E+01    -.68727E+00    -.45943E-01         .000      .000
    .520    -.45077E-02    -.21586E-03     .51207E+01    -.10518E+01    -.51073E-01         .000      .000
    .530    -.50107E-02    -.22127E-03     .62094E+01    -.11883E+01    -.47599E-01         .000      .000
    .540    -.54190E-02    -.37790E-03     .59785E+01    -.10856E+01    -.31953E-01         .000      .000
    .550    -.56093E-02    -.67246E-03     .48506E+01    -.84839E+00    -.42125E-02         .000      .000
    .560    -.54750E-02    -.10840E-02     .31369E+01    -.50038E+00     .32001E-01         .000      .000
    .570    -.49537E-02    -.15943E-02     .42634E+00     .71177E-01     .72923E-01         .000      .000
    .580    -.40136E-02    -.21643E-02    -.38304E+01     .95414E+00     .11473E+00         .000      .000
    .590    -.26646E-02    -.27083E-02    -.95027E+01     .20753E+01     .15483E+00         .000      .000
    .600    -.90943E-03    -.30962E-02    -.15634E+02     .32147E+01     .19711E+00         .000      .000
    .610     .12906E-02    -.31806E-02    -.20828E+02     .40908E+01     .24317E+00         .000      .000
    .620     .39567E-02    -.28343E-02    -.23539E+02     .44122E+01     .28994E+00         .000      .000
    .630     .70673E-02    -.19961E-02    -.22685E+02     .40302E+01     .33007E+00         .000      .000
    .640     .10507E-01    -.69976E-03    -.18497E+02     .30715E+01     .35506E+00         .000      .000
    .650     .14101E-01     .94456E-03    -.12311E+02     .18291E+01     .35981E+00         .000      .000
    .660     .17617E-01     .28007E-02    -.55503E+01     .55146E+00     .33865E+00         .000      .000
    .670     .20770E-01     .47477E-02     .10979E+01    -.67582E+00     .28658E+00         .000      .000
    .680     .23254E-01     .66888E-02     .76216E+01    -.18766E+01     .20620E+00         .000      .000
    .690     .24836E-01     .85417E-02     .14300E+02    -.31227E+01     .10826E+00         .000      .000
    .700     .25389E-01     .10226E-01     .21748E+02    -.45573E+01     .12850E-02         .000      .000
    .710     .24848E-01     .11635E-01     .30693E+02    -.62997E+01    -.10982E+00         .000      .000
    .720     .23209E-01     .12590E-01     .40716E+02    -.81740E+01    -.21584E+00         .000      .000
    .730     .20583E-01     .12854E-01     .49525E+02    -.96634E+01    -.30614E+00         .000      .000
    .740     .17135E-01     .12201E-01     .54210E+02    -.10231E+02    -.38179E+00         .000      .000
    .750     .12975E-01     .10497E-01     .52704E+02    -.95375E+01    -.44898E+00         .000      .000
    .760     .82056E-02     .77494E-02     .43735E+02    -.73776E+01    -.50110E+00         .000      .000
    .770     .30472E-02     .41392E-02     .27091E+02    -.38184E+01    -.52513E+00         .000      .000
    .780    -.21775E-02     .47958E-04     .52918E+01     .47663E+00    -.51368E+00         .000      .000
    .790    -.70942E-02    -.40244E-02    -.16617E+02     .44801E+01    -.46292E+00         .000      .000
    .800    -.11295E-01    -.76222E-02    -.34241E+02     .74773E+01    -.37021E+00         .000      .000
    .810    -.14381E-01    -.10443E-01    -.45888E+02     .92965E+01    -.24246E+00         .000      .000
    .820    -.16080E-01    -.12346E-01    -.51863E+02     .10080E+02    -.95299E-01         .000      .000
    .830    -.16263E-01    -.13319E-01    -.53639E+02     .10176E+02     .59294E-01         .000      .000
    .840    -.14905E-01    -.13423E-01    -.53515E+02     .10042E+02     .21091E+00         .000      .000
    .850    -.12084E-01    -.12704E-01    -.53102E+02     .98979E+01     .35093E+00         .000      .000
    .860    -.79624E-02    -.11151E-01    -.51964E+02     .95518E+01     .46793E+00         .000      .000
    .870    -.28416E-02    -.87252E-02    -.48240E+02     .86156E+01     .54987E+00         .000      .000
    .880     .29033E-02    -.54290E-02    -.40087E+02     .67739E+01     .59229E+00         .000      .000
    .890     .88429E-02    -.13643E-02    -.26546E+02     .39006E+01     .58635E+00         .000      .000
    .900     .14447E-01     .32440E-02    -.75756E+01     .44396E-01     .52558E+00         .000      .000
    .910     .19181E-01     .80386E-02     .15515E+02    -.44515E+01     .41302E+00         .000      .000
    .920     .22543E-01     .12561E-01     .39786E+02    -.89648E+01     .25146E+00         .000      .000
    .930     .24086E-01     .16336E-01     .61977E+02    -.12904E+02     .52727E-01         .000      .000
    .940     .23564E-01     .18945E-01     .79507E+02    -.15831E+02    -.15595E+00         .000      .000
    .950     .21051E-01     .20078E-01     .90623E+02    -.17486E+02    -.33914E+00         .000      .000
    .960     .16960E-01     .19557E-01     .94818E+02    -.17854E+02    -.46883E+00         .000      .000
    .970     .11811E-01     .17314E-01     .92259E+02    -.16954E+02    -.55761E+00         .000      .000
    .980     .58259E-02     .13357E-01     .82007E+02    -.14484E+02    -.64078E+00         .000      .000
    .990    -.99295E-03     .77987E-02     .61066E+02    -.97858E+01    -.72036E+00         .000      .000
   1.000    -.84906E-02     .10098E-02     .27125E+02    -.26273E+01    -.77290E+00         .000      .000
   1.010    -.16238E-01    -.62526E-02    -.15677E+02     .57283E+01    -.76218E+00         .000      .000
   1.020    -.23405E-01    -.12978E-01    -.56321E+02     .12951E+02    -.65357E+00         .000      .000
   1.030    -.29009E-01    -.18279E-01    -.84163E+02     .17254E+02    -.45547E+00         .000      .000
   1.040    -.32355E-01    -.21698E-01    -.95053E+02     .18303E+02    -.20937E+00         .000      .000
   1.050    -.33185E-01    -.23267E-01    -.92638E+02     .17207E+02     .40834E-01         .000      .000
   1.060    -.31609E-01    -.23322E-01    -.85485E+02     .15722E+02     .27025E+00         .000      .000
   1.070    -.27857E-01    -.22176E-01    -.80746E+02     .14961E+02     .47650E+00         .000      .000
   1.080    -.22143E-01    -.19907E-01    -.79399E+02     .14730E+02     .66347E+00         .000      .000
   1.090    -.14625E-01    -.16393E-01    -.76834E+02     .13939E+02     .83885E+00         .000      .000
   1.100    -.53956E-02    -.11508E-01    -.67122E+02     .11507E+02     .10050E+01         .000      .000
   1.110     .53795E-02    -.53326E-02    -.46735E+02     .69643E+01     .11426E+01         .000      .000
   1.120     .17274E-01     .17430E-02    -.16275E+02     .69409E+00     .12258E+01         .000      .000
   1.130     .29657E-01     .90400E-02     .18817E+02    -.60067E+01     .12380E+01         .000      .000
   1.140     .41792E-01     .15771E-01     .50093E+02    -.11482E+02     .11779E+01         .000      .000
   1.150     .52974E-01     .21303E-01     .70797E+02    -.14663E+02     .10457E+01         .000      .000
   1.160     .62460E-01     .25332E-01     .79041E+02    -.15473E+02     .83951E+00         .000      .000
   1.170     .69566E-01     .27881E-01     .77122E+02    -.14524E+02     .57348E+00         .000      .000
   1.180     .73767E-01     .29202E-01     .69381E+02    -.12730E+02     .25857E+00         .000      .000
   1.190     .74656E-01     .29651E-01     .61502E+02    -.11240E+02    -.80933E-01         .000      .000
   1.200     .72177E-01     .29521E-01     .58941E+02    -.11009E+02    -.41221E+00         .000      .000
   1.210     .66421E-01     .28887E-01     .64085E+02    -.12275E+02    -.74065E+00         .000      .000
   1.220     .57317E-01     .27546E-01     .75245E+02    -.14467E+02    -.10827E+01         .000      .000
   1.230     .44766E-01     .25087E-01     .86157E+02    -.16160E+02    -.14247E+01         .000      .000
   1.240     .28917E-01     .21111E-01     .88599E+02    -.15872E+02    -.17383E+01         .000      .000
   1.250     .10221E-01     .15514E-01     .79226E+02    -.13398E+02    -.19857E+01         .000      .000
   1.260    -.10448E-01     .85351E-02     .61586E+02    -.96990E+01    -.21290E+01         .000      .000
   1.270    -.31971E-01     .56810E-03     .41000E+02    -.57430E+01    -.21567E+01         .000      .000
   1.280    -.53243E-01    -.80258E-02     .20453E+02    -.19140E+01    -.20831E+01         .000      .000
   1.290    -.73389E-01    -.16987E-01    -.45092E+00     .20612E+01    -.19359E+01         .000      .000
   1.300    -.91773E-01    -.26101E-01    -.24699E+02     .68428E+01    -.17318E+01         .000      .000
   1.310    -.10783E+00    -.35057E-01    -.54993E+02     .12826E+02    -.14704E+01         .000      .000
   1.320    -.12097E+00    -.43325E-01    -.90298E+02     .19546E+02    -.11459E+01         .000      .000
   1.330    -.13052E+00    -.50187E-01    -.12501E+03     .25733E+02    -.75114E+00         .000      .000
   1.340    -.13580E+00    -.54914E-01    -.15183E+03     .30017E+02    -.29860E+00         .000      .000
   1.350    -.13638E+00    -.56988E-01    -.16536E+03     .31559E+02     .18636E+00         .000      .000
   1.360    -.13204E+00    -.56228E-01    -.16416E+03     .30346E+02     .68106E+00         .000      .000
   1.370    -.12285E+00    -.52792E-01    -.15083E+03     .27060E+02     .11489E+01         .000      .000
   1.380    -.10928E+00    -.47064E-01    -.12971E+03     .22573E+02     .15503E+01         .000      .000
   1.390    -.92247E-01    -.39524E-01    -.10516E+03     .17722E+02     .18307E+01         .000      .000
   1.400    -.73262E-01    -.30627E-01    -.80724E+02     .13123E+02     .19336E+01         .000      .000
   1.410    -.54118E-01    -.20711E-01    -.57607E+02     .88263E+01     .18739E+01         .000      .000
   1.420    -.36077E-01    -.99560E-02    -.33334E+02     .40816E+01     .17260E+01         .000      .000
   1.430    -.19724E-01     .15227E-02    -.52800E+00    -.27975E+01     .15398E+01         .000      .000
   1.440    -.54361E-02     .13365E-01     .49501E+02    -.13264E+02     .13071E+01         .000      .000
   1.450     .61683E-02     .24583E-01     .11557E+03    -.26245E+02     .10005E+01         .000      .000
   1.460     .14291E-01     .33588E-01     .18111E+03    -.37883E+02     .61065E+00         .000      .000
   1.470     .18236E-01     .38791E-01     .22440E+03    -.44221E+02     .17830E+00         .000      .000
   1.480     .17951E-01     .39286E-01     .23302E+03    -.43684E+02    -.22599E+00         .000      .000
   1.490     .13980E-01     .35112E-01     .20835E+03    -.37241E+02    -.55187E+00         .000      .000
   1.500     .72571E-02     .27059E-01     .16042E+03    -.27061E+02    -.77552E+00         .000      .000
   1.510    -.11759E-02     .16290E-01     .99999E+02    -.15079E+02    -.89357E+00         .000      .000
   1.520    -.10256E-01     .40740E-02     .34977E+02    -.26385E+01    -.90459E+00         .000      .000
   1.530    -.18951E-01    -.83459E-02    -.28713E+02     .92022E+01    -.82093E+00         .000      .000
   1.540    -.26431E-01    -.19830E-01    -.86076E+02     .19568E+02    -.66444E+00         .000      .000
   1.550    -.31995E-01    -.29419E-01    -.13395E+03     .27992E+02    -.43478E+00         .000      .000
   1.560    -.34922E-01    -.36350E-01    -.17104E+03     .34277E+02    -.14414E+00         .000      .000
   1.570    -.34838E-01    -.40016E-01    -.19506E+03     .37877E+02     .15801E+00         .000      .000
   1.580    -.31849E-01    -.40009E-01    -.20216E+03     .38097E+02     .43403E+00         .000      .000
   1.590    -.26313E-01    -.36250E-01    -.19092E+03     .34872E+02     .66377E+00         .000      .000
   1.600    -.18794E-01    -.28985E-01    -.16218E+03     .28386E+02     .82738E+00         .000      .000
   1.610    -.10006E-01    -.18746E-01    -.11590E+03     .18581E+02     .91880E+00         .000      .000
   1.620    -.63775E-03    -.64137E-02    -.53274E+02     .58830E+01     .94471E+00         .000      .000
   1.630     .86238E-02     .67542E-02     .19782E+02    -.83148E+01     .89193E+00         .000      .000
   1.640     .16881E-01     .19257E-01     .93689E+02    -.22043E+02     .74415E+00         .000      .000
   1.650     .23244E-01     .29577E-01     .15706E+03    -.33081E+02     .51842E+00         .000      .000
   1.660     .27073E-01     .36467E-01     .19901E+03    -.39520E+02     .24026E+00         .000      .000
   1.670     .27975E-01     .39226E-01     .21407E+03    -.40750E+02    -.60245E-01         .000      .000
   1.680     .25884E-01     .37779E-01     .20382E+03    -.37388E+02    -.35644E+00         .000      .000
   1.690     .20927E-01     .32552E-01     .17315E+03    -.30461E+02    -.62871E+00         .000      .000
   1.700     .13463E-01     .24318E-01     .12779E+03    -.21095E+02    -.85528E+00         .000      .000
   1.710     .40135E-02     .14069E-01     .73960E+02    -.10505E+02    -.10248E+01         .000      .000
   1.720    -.67906E-02     .28932E-02     .18153E+02     .77475E-01    -.11223E+01         .000      .000
   1.730    -.18158E-01    -.81598E-02    -.34079E+02     .96829E+01    -.11378E+01         .000      .000
   1.740    -.29290E-01    -.18175E-01    -.78847E+02     .17655E+02    -.10768E+01         .000      .000
   1.750    -.39422E-01    -.26420E-01    -.11341E+03     .23533E+02    -.93463E+00         .000      .000
   1.760    -.47702E-01    -.32375E-01    -.13629E+03     .27103E+02    -.70855E+00         .000      .000
   1.770    -.53381E-01    -.35737E-01    -.14670E+03     .28235E+02    -.41911E+00         .000      .000
   1.780    -.55986E-01    -.36435E-01    -.14416E+03     .26908E+02    -.10002E+00         .000      .000
   1.790    -.55400E-01    -.34655E-01    -.13036E+03     .23625E+02     .21374E+00         .000      .000
   1.800    -.51821E-01    -.30789E-01    -.10947E+03     .19262E+02     .49486E+00         .000      .000
   1.810    -.45642E-01    -.25292E-01    -.85161E+02     .14412E+02     .73447E+00         .000      .000
   1.820    -.37233E-01    -.18595E-01    -.58673E+02     .91723E+01     .94358E+00         .000      .000
   1.830    -.26889E-01    -.11121E-01    -.29639E+02     .34343E+01     .11171E+01         .000      .000
