


 TIME HISTORY FOR STORY NO.  3



    TIME   DISPLACEMENT    STORY DRIFT    STORY SHEAR   ACCELERATION     VELOCITY          DAMAGE    DAMAGE
                                                                                          BEAM-SLAB  COL-WALL

    .000     .00000E+00     .00000E+00     .00000E+00     .00000E+00     .00000E+00         .000      .000
    .010    -.34932E-05     .72044E-07     .18188E-01    -.48962E-02    -.67546E-03         .000      .000
    .020    -.13949E-04    -.62956E-06     .78301E-01    -.70503E-02    -.14913E-02         .000      .000
    .030    -.33281E-04    -.43893E-05     .99246E-01     .61260E-02    -.22976E-02         .000      .000
    .040    -.59367E-04    -.12390E-04     .40897E-01     .28155E-01    -.29481E-02         .000      .000
    .050    -.91362E-04    -.24020E-04    -.58830E-01     .41643E-01    -.33382E-02         .000      .000
    .060    -.12490E-03    -.38577E-04    -.18958E+00     .54669E-01    -.33545E-02         .000      .000
    .070    -.15740E-03    -.54726E-04    -.35212E+00     .65107E-01    -.30600E-02         .000      .000
    .080    -.18573E-03    -.70230E-04    -.49257E+00     .70744E-01    -.26542E-02         .000      .000
    .090    -.21102E-03    -.83197E-04    -.54971E+00     .66015E-01    -.24111E-02         .000      .000
    .100    -.23619E-03    -.93655E-04    -.50495E+00     .57825E-01    -.28349E-02         .000      .000
    .110    -.26997E-03    -.10369E-03    -.36511E+00     .47131E-01    -.39295E-02         .000      .000
    .120    -.31462E-03    -.11789E-03    -.23810E+00     .57685E-01    -.49667E-02         .000      .000
    .130    -.36669E-03    -.14001E-03    -.27590E+00     .85532E-01    -.52317E-02         .000      .000
    .140    -.41717E-03    -.16927E-03    -.48820E+00     .10541E+00    -.48816E-02         .000      .000
    .150    -.46249E-03    -.20102E-03    -.72965E+00     .92041E-01    -.39816E-02         .000      .000
    .160    -.49453E-03    -.23126E-03    -.95133E+00     .77702E-01    -.23884E-02         .000      .000
    .170    -.50968E-03    -.25561E-03    -.11354E+01     .61626E-01    -.63170E-03         .000      .000
    .180    -.50782E-03    -.26923E-03    -.11224E+01     .27271E-01     .92814E-03         .000      .000
    .190    -.49173E-03    -.27158E-03    -.88365E+00    -.14479E-01     .23109E-02         .000      .000
    .200    -.45913E-03    -.26641E-03    -.57410E+00    -.42791E-01     .44412E-02         .000      .000
    .210    -.39780E-03    -.25684E-03    -.40222E+00    -.57568E-01     .80924E-02         .000      .000
    .220    -.29539E-03    -.23984E-03    -.37224E+00    -.10198E+00     .12291E-01         .000      .000
    .230    -.15749E-03    -.20775E-03    -.20767E+00    -.21414E+00     .14837E-01         .000      .000
    .240    -.13904E-04    -.15746E-03     .32328E+00    -.35604E+00     .12835E-01         .000      .000
    .250     .87374E-04    -.96569E-04     .12450E+01    -.45443E+00     .73202E-02         .000      .000
    .260     .12798E-03    -.44513E-04     .20168E+01    -.39768E+00     .46698E-03         .000      .000
    .270     .92316E-04    -.15613E-04     .23053E+01    -.28331E+00    -.77633E-02         .000      .000
    .280    -.27004E-04    -.16705E-04     .22828E+01    -.18649E+00    -.15898E-01         .000      .000
    .290    -.22153E-03    -.56351E-04     .16763E+01    -.36238E-01    -.22782E-01         .000      .000
    .300    -.47253E-03    -.13353E-03     .35513E+00     .16449E+00    -.26651E-01         .000      .000
    .310    -.73730E-03    -.23378E-03    -.14270E+01     .38840E+00    -.25360E-01         .000      .000
    .320    -.96871E-03    -.33366E-03    -.32612E+01     .56575E+00    -.20806E-01         .000      .000
    .330    -.11598E-02    -.40766E-03    -.43470E+01     .59178E+00    -.18188E-01         .000      .000
    .340    -.13447E-02    -.44939E-03    -.41534E+01     .53225E+00    -.19165E-01         .000      .000
    .350    -.15488E-02    -.48241E-03    -.33387E+01     .58670E+00    -.21802E-01         .000      .000
    .360    -.17896E-02    -.53532E-03    -.27498E+01     .72311E+00    -.27158E-01         .000      .000
    .370    -.20906E-02    -.62470E-03    -.23049E+01     .77502E+00    -.32109E-01         .000      .000
    .380    -.24040E-02    -.76968E-03    -.26806E+01     .89213E+00    -.28673E-01         .000      .000
    .390    -.26238E-02    -.96580E-03    -.48058E+01     .10591E+01    -.13258E-01         .000      .000
    .400    -.26363E-02    -.11557E-02    -.76803E+01     .99357E+00     .11904E-01         .000      .000
    .410    -.23771E-02    -.12612E-02    -.93934E+01     .57747E+00     .39654E-01         .000      .000
    .420    -.18679E-02    -.12283E-02    -.86596E+01    -.69464E-01     .60075E-01         .000      .000
    .430    -.12280E-02    -.10501E-02    -.50305E+01    -.76800E+00     .64879E-01         .000      .000
    .440    -.64258E-03    -.77600E-03     .94799E+00    -.13412E+01     .48093E-01         .000      .000
    .450    -.32758E-03    -.50547E-03     .78104E+01    -.16795E+01     .12937E-01         .000      .000
    .460    -.41819E-03    -.36605E-03     .12826E+02    -.15775E+01    -.32469E-01         .000      .000
    .470    -.10042E-02    -.45244E-03     .13870E+02    -.11640E+01    -.86147E-01         .000      .000
    .480    -.21371E-02    -.79476E-03     .11184E+02    -.62274E+00    -.13860E+00         .000      .000
    .490    -.37163E-02    -.13862E-02     .45634E+01     .32635E+00    -.17302E+00         .000      .000
    .500    -.55084E-02    -.21580E-02    -.58545E+01     .15840E+01    -.18091E+00         .000      .000
    .510    -.72589E-02    -.29636E-02    -.16911E+02     .25633E+01    -.16634E+00         .000      .000
    .520    -.87525E-02    -.36577E-02    -.24911E+02     .30501E+01    -.12690E+00         .000      .000
    .530    -.96709E-02    -.41676E-02    -.30046E+02     .34963E+01    -.49562E-01         .000      .000
    .540    -.96063E-02    -.44300E-02    -.34002E+02     .37564E+01     .68725E-01         .000      .000
    .550    -.81986E-02    -.43208E-02    -.35155E+02     .29969E+01     .21607E+00         .000      .000
    .560    -.52769E-02    -.37099E-02    -.30745E+02     .89403E+00     .36583E+00         .000      .000
    .570    -.96884E-03    -.25309E-02    -.19374E+02    -.21948E+01     .48978E+00         .000      .000
    .580     .43449E-02    -.81082E-03    -.14370E+01    -.55502E+01     .56187E+00         .000      .000
    .590     .10039E-01     .13317E-02     .21987E+02    -.87568E+01     .56527E+00         .000      .000
    .600     .15459E-01     .36685E-02     .47912E+02    -.11252E+02     .51148E+00         .000      .000
    .610     .20141E-01     .58967E-02     .69485E+02    -.12412E+02     .41963E+00         .000      .000
    .620     .23777E-01     .77869E-02     .81841E+02    -.12549E+02     .30526E+00         .000      .000
    .630     .26191E-01     .92435E-02     .84342E+02    -.11978E+02     .17412E+00         .000      .000
    .640     .27206E-01     .10275E-01     .78891E+02    -.10738E+02     .27239E-01         .000      .000
    .650     .26703E-01     .10930E-01     .68164E+02    -.84455E+01    -.12930E+00         .000      .000
    .660     .24585E-01     .11252E-01     .54551E+02    -.49950E+01    -.29642E+00         .000      .000
    .670     .20720E-01     .11242E-01     .41132E+02    -.79066E+00    -.48005E+00         .000      .000
    .680     .14972E-01     .10788E-01     .28755E+02     .40841E+01    -.66720E+00         .000      .000
    .690     .75019E-02     .96546E-02     .12552E+02     .10099E+02    -.81640E+00         .000      .000
    .700    -.10952E-02     .76685E-02    -.13836E+02     .16889E+02    -.88795E+00         .000      .000
    .710    -.99199E-02     .49074E-02    -.50033E+02     .22869E+02    -.85905E+00         .000      .000
    .720    -.17871E-01     .16891E-02    -.90172E+02     .26968E+02    -.70896E+00         .000      .000
    .730    -.23664E-01    -.15256E-02    -.12873E+03     .29105E+02    -.42848E+00         .000      .000
    .740    -.26156E-01    -.41464E-02    -.15776E+03     .28521E+02    -.63121E-01         .000      .000
    .750    -.24930E-01    -.55695E-02    -.16325E+03     .23897E+02     .30085E+00         .000      .000
    .760    -.20346E-01    -.55275E-02    -.13664E+03     .16075E+02     .60345E+00         .000      .000
    .770    -.13150E-01    -.42683E-02    -.85796E+02     .75615E+01     .82029E+00         .000      .000
    .780    -.42672E-02    -.23053E-02    -.24974E+02    -.81454E+00     .93914E+00         .000      .000
    .790     .53199E-02    -.15450E-03     .35442E+02    -.94358E+01     .96409E+00         .000      .000
    .800     .14794E-01     .17416E-02     .85637E+02    -.17688E+02     .92346E+00         .000      .000
    .810     .23645E-01     .31429E-02     .11678E+03    -.24509E+02     .83996E+00         .000      .000
    .820     .31456E-01     .41656E-02     .13026E+03    -.30018E+02     .71499E+00         .000      .000
    .830     .37815E-01     .51466E-02     .13601E+03    -.34208E+02     .55123E+00         .000      .000
    .840     .42350E-01     .63462E-02     .14088E+03    -.36166E+02     .34869E+00         .000      .000
    .850     .44665E-01     .78244E-02     .14706E+03    -.35491E+02     .10906E+00         .000      .000
    .860     .44389E-01     .94148E-02     .15312E+03    -.32219E+02    -.17321E+00         .000      .000
    .870     .41057E-01     .10758E-01     .15499E+03    -.26778E+02    -.49861E+00         .000      .000
    .880     .34379E-01     .11370E-01     .14541E+03    -.18879E+02    -.83528E+00         .000      .000
    .890     .24413E-01     .10814E-01     .11559E+03    -.83773E+01    -.11539E+01         .000      .000
    .900     .11468E-01     .89419E-02     .65451E+02     .34342E+01    -.14229E+01         .000      .000
    .910    -.37356E-02     .58564E-02     .85613E+00     .15837E+02    -.15994E+01         .000      .000
    .920    -.20135E-01     .18320E-02    -.72071E+02     .28251E+02    -.16610E+01         .000      .000
    .930    -.36505E-01    -.27110E-02    -.14338E+03     .39323E+02    -.15878E+01         .000      .000
    .940    -.51306E-01    -.73500E-02    -.20511E+03     .48429E+02    -.13394E+01         .000      .000
    .950    -.62541E-01    -.11697E-01    -.25597E+03     .54971E+02    -.86626E+00         .000      .000
    .960    -.67838E-01    -.15242E-01    -.29505E+03     .57227E+02    -.15649E+00         .000      .000
    .970    -.65318E-01    -.17238E-01    -.31342E+03     .52321E+02     .65778E+00         .000      .000
    .980    -.55112E-01    -.16888E-01    -.28893E+03     .37972E+02     .13434E+01         .000      .000
    .990    -.39370E-01    -.14010E-01    -.20787E+03     .17850E+02     .17557E+01         .000      .000
   1.000    -.20992E-01    -.94011E-02    -.88727E+02    -.74880E+00     .18719E+01         .000      .000
   1.010    -.26458E-02    -.43253E-02     .37791E+02    -.15315E+02     .17742E+01         .000      .000
   1.020     .14246E-01     .32057E-04     .14438E+03    -.26577E+02     .16025E+01         .000      .000
   1.030     .29375E-01     .29514E-02     .20910E+03    -.36176E+02     .14212E+01         .000      .000
   1.040     .42566E-01     .45102E-02     .23124E+03    -.45985E+02     .12083E+01         .000      .000
   1.050     .53276E-01     .53816E-02     .22812E+03    -.54872E+02     .91686E+00         .000      .000
   1.060     .60595E-01     .63297E-02     .21918E+03    -.59863E+02     .53405E+00         .000      .000
   1.070     .63771E-01     .78023E-02     .21627E+03    -.58856E+02     .95879E-01         .000      .000
   1.080     .62496E-01     .97511E-02     .22021E+03    -.52217E+02    -.34774E+00         .000      .000
   1.090     .57034E-01     .11674E-01     .22172E+03    -.41608E+02    -.72651E+00         .000      .000
   1.100     .48435E-01     .12864E-01     .20208E+03    -.28017E+02    -.96493E+00         .000      .000
   1.110     .38284E-01     .12935E-01     .14712E+03    -.13170E+02    -.10401E+01         .000      .000
   1.120     .28117E-01     .12188E-01     .64365E+02     .24755E+00    -.97123E+00         .000      .000
   1.130     .19222E-01     .11398E-01    -.24911E+02     .11506E+02    -.79344E+00         .000      .000
   1.140     .12492E-01     .11391E-01    -.99552E+02     .21056E+02    -.54252E+00         .000      .000
   1.150     .83810E-02     .12735E-01    -.14367E+03     .28895E+02    -.28909E+00         .000      .000
   1.160     .63811E-02     .15513E-01    -.14667E+03     .33708E+02    -.13450E+00         .000      .000
   1.170     .51896E-02     .19082E-01    -.11172E+03     .36080E+02    -.12938E+00         .000      .000
   1.180     .32298E-02     .22153E-01    -.63301E+02     .38407E+02    -.29257E+00         .000      .000
   1.190    -.99795E-03     .23383E-01    -.27065E+02     .41185E+02    -.55644E+00         .000      .000
   1.200    -.77961E-02     .21818E-01    -.23955E+02     .45216E+02    -.78934E+00         .000      .000
   1.210    -.16561E-01     .17316E-01    -.62002E+02     .48793E+02    -.95661E+00         .000      .000
   1.220    -.26823E-01     .10664E-01    -.11870E+03     .48368E+02    -.10930E+01         .000      .000
   1.230    -.38286E-01     .28651E-02    -.16670E+03     .45304E+02    -.11875E+01         .000      .000
   1.240    -.50302E-01    -.54033E-02    -.19932E+03     .43289E+02    -.12002E+01         .000      .000
   1.250    -.61823E-01    -.13656E-01    -.21522E+03     .41572E+02    -.10737E+01         .000      .000
   1.260    -.71135E-01    -.21545E-01    -.21458E+03     .37890E+02    -.75566E+00         .000      .000
   1.270    -.76349E-01    -.28815E-01    -.20439E+03     .30237E+02    -.26261E+00         .000      .000
   1.280    -.76105E-01    -.35074E-01    -.18731E+03     .17300E+02     .31489E+00         .000      .000
   1.290    -.70219E-01    -.39756E-01    -.15662E+03    -.52837E+00     .84272E+00         .000      .000
   1.300    -.59764E-01    -.42374E-01    -.10243E+03    -.20889E+02     .12177E+01         .000      .000
   1.310    -.46505E-01    -.42829E-01    -.23495E+02    -.40264E+02     .14021E+01         .000      .000
   1.320    -.32332E-01    -.41477E-01     .70505E+02    -.56378E+02     .14040E+01         .000      .000
   1.330    -.18855E-01    -.38983E-01     .16423E+03    -.68709E+02     .12773E+01         .000      .000
   1.340    -.70853E-02    -.36113E-01     .23786E+03    -.76895E+02     .10612E+01         .000      .000
   1.350     .21857E-02    -.33386E-01     .27872E+03    -.81590E+02     .78986E+00         .000      .000
   1.360     .87062E-02    -.30953E-01     .28324E+03    -.81967E+02     .51727E+00         .000      .000
   1.370     .12563E-01    -.28576E-01     .25488E+03    -.77686E+02     .25400E+00         .000      .000
   1.380     .13719E-01    -.25702E-01     .21167E+03    -.70209E+02    -.29755E-01         .000      .000
   1.390     .11524E-01    -.21931E-01     .17408E+03    -.60121E+02    -.44669E+00         .000      .000
   1.400     .38600E-02    -.17460E-01     .15685E+03    -.47530E+02    -.11406E+01         .000      .000
   1.410    -.11980E-01    -.13474E-01     .15584E+03    -.29232E+02    -.20399E+01         .000      .000
   1.420    -.36593E-01    -.12013E-01     .12682E+03     .34829E+00    -.28346E+01         .000      .000
   1.430    -.67330E-01    -.14616E-01     .21210E+02     .38112E+02    -.32304E+01         .000      .000
   1.440    -.99553E-01    -.21046E-01    -.15886E+03     .72342E+02    -.31367E+01         .000      .000
   1.450    -.12865E+00    -.29521E-01    -.36736E+03     .95173E+02    -.26186E+01         .000      .000
   1.460    -.15091E+00    -.37756E-01    -.55586E+03     .10817E+03    -.17941E+01         .000      .000
   1.470    -.16371E+00    -.43625E-01    -.68523E+03     .11454E+03    -.72482E+00         .000      .000
   1.480    -.16471E+00    -.45611E-01    -.72984E+03     .11480E+03     .55067E+00         .000      .000
   1.490    -.15242E+00    -.43066E-01    -.68085E+03     .10506E+03     .19086E+01         .000      .000
   1.500    -.12691E+00    -.36312E-01    -.54624E+03     .82681E+02     .31576E+01         .000      .000
   1.510    -.90265E-01    -.26541E-01    -.35505E+03     .50247E+02     .41090E+01         .000      .000
   1.520    -.46065E-01    -.15292E-01    -.14516E+03     .13340E+02     .46608E+01         .000      .000
   1.530     .14339E-02    -.38477E-02     .53907E+02    -.23466E+02     .47589E+01         .000      .000
   1.540     .47523E-01     .70411E-02     .23347E+03    -.58252E+02     .43812E+01         .000      .000
   1.550     .87757E-01     .16826E-01     .39211E+03    -.87619E+02     .36155E+01         .000      .000
   1.560     .11889E+00     .24855E-01     .51430E+03    -.10662E+03     .25670E+01         .000      .000
   1.570     .13825E+00     .30657E-01     .59121E+03    -.11558E+03     .12652E+01         .000      .000
   1.580     .14358E+00     .33882E-01     .62937E+03    -.11566E+03    -.21977E+00         .000      .000
   1.590     .13373E+00     .33871E-01     .61917E+03    -.10374E+03    -.17416E+01         .000      .000
   1.600     .10919E+00     .29991E-01     .54168E+03    -.79011E+02    -.31310E+01         .000      .000
   1.610     .72199E-01     .22215E-01     .39592E+03    -.45213E+02    -.41963E+01         .000      .000
   1.620     .26968E-01     .11187E-01     .19316E+03    -.64430E+01    -.47522E+01         .000      .000
   1.630    -.20948E-01    -.17909E-02    -.48239E+02     .32699E+02    -.47419E+01         .000      .000
   1.640    -.66174E-01    -.14783E-01    -.28966E+03     .66069E+02    -.42255E+01         .000      .000
   1.650    -.10400E+00    -.25834E-01    -.48838E+03     .91188E+02    -.32734E+01         .000      .000
   1.660    -.13058E+00    -.33554E-01    -.62217E+03     .10806E+03    -.20020E+01         .000      .000
   1.670    -.14349E+00    -.37127E-01    -.67750E+03     .11424E+03    -.56552E+00         .000      .000
   1.680    -.14195E+00    -.36424E-01    -.64970E+03     .10838E+03     .85131E+00         .000      .000
   1.690    -.12714E+00    -.32054E-01    -.54968E+03     .91194E+02     .20660E+01         .000      .000
   1.700    -.10172E+00    -.25181E-01    -.40064E+03     .66055E+02     .29553E+01         .000      .000
   1.710    -.69394E-01    -.17148E-01    -.23013E+03     .36682E+02     .34384E+01         .000      .000
   1.720    -.34321E-01    -.91267E-02    -.57860E+02     .58212E+01     .35132E+01         .000      .000
   1.730    -.33553E-03    -.20736E-02     .99071E+02    -.23074E+02     .32279E+01         .000      .000
   1.740     .29218E-01     .33654E-02     .22790E+03    -.47780E+02     .26377E+01         .000      .000
   1.750     .51800E-01     .68579E-02     .32399E+03    -.66640E+02     .18627E+01         .000      .000
   1.760     .66341E-01     .82475E-02     .37886E+03    -.77227E+02     .10489E+01         .000      .000
   1.770     .72959E-01     .77227E-02     .38847E+03    -.80302E+02     .28825E+00         .000      .000
   1.780     .72401E-01     .58639E-02     .36402E+03    -.78440E+02    -.38458E+00         .000      .000
   1.790     .65582E-01     .33043E-02     .31933E+03    -.72391E+02    -.96293E+00         .000      .000
   1.800     .53486E-01     .48004E-03     .26158E+03    -.61512E+02    -.14383E+01         .000      .000
   1.810     .37309E-01    -.23659E-02     .19404E+03    -.45925E+02    -.17663E+01         .000      .000
   1.820     .18947E-01    -.51132E-02     .11649E+03    -.26681E+02    -.18592E+01         .000      .000
   1.830     .99402E-03    -.75846E-02     .26739E+02    -.63700E+01    -.16933E+01         .000      .000
