


 TIME HISTORY FOR STORY NO.  5



    TIME   DISPLACEMENT    STORY DRIFT    STORY SHEAR   ACCELERATION     VELOCITY          DAMAGE    DAMAGE
                                                                                          BEAM-SLAB  COL-WALL

    .000     .00000E+00     .00000E+00     .00000E+00     .00000E+00     .00000E+00         .000      .000
    .010    -.28802E-05    -.15171E-09    -.58347E-03     .43845E-03    -.54899E-03         .000      .000
    .020    -.11132E-04     .11212E-06    -.35940E-02     .27861E-03    -.11611E-02         .000      .000
    .030    -.26336E-04     .79821E-06     .15301E-01    -.63491E-02    -.18446E-02         .000      .000
    .040    -.48408E-04     .19675E-05     .69770E-01    -.14968E-01    -.26393E-02         .000      .000
    .050    -.79083E-04     .25525E-05     .13151E+00    -.14385E-01    -.34191E-02         .000      .000
    .060    -.11589E-03     .14312E-05     .17699E+00    -.50705E-02    -.39313E-02         .000      .000
    .070    -.15687E-03    -.21500E-05     .21917E+00     .34406E-02    -.41953E-02         .000      .000
    .080    -.19945E-03    -.92294E-05     .24690E+00     .10349E-01    -.43577E-02         .000      .000
    .090    -.24430E-03    -.20611E-04     .24081E+00     .15278E-01    -.46011E-02         .000      .000
    .100    -.29304E-03    -.36223E-04     .20170E+00     .14998E-01    -.53141E-02         .000      .000
    .110    -.35230E-03    -.55167E-04     .15105E+00     .72781E-02    -.65429E-02         .000      .000
    .120    -.42404E-03    -.76167E-04     .11292E+00    -.68196E-02    -.78160E-02         .000      .000
    .130    -.50761E-03    -.98265E-04     .12094E+00    -.22015E-01    -.87805E-02         .000      .000
    .140    -.59896E-03    -.12217E-03     .14990E+00    -.19671E-01    -.95318E-02         .000      .000
    .150    -.69628E-03    -.14959E-03     .13631E+00     .85237E-02    -.96956E-02         .000      .000
    .160    -.78931E-03    -.18129E-03     .63473E-01     .42101E-01    -.88038E-02         .000      .000
    .170    -.87070E-03    -.21695E-03    -.24915E-01     .57251E-01    -.74194E-02         .000      .000
    .180    -.93728E-03    -.25654E-03    -.15669E+00     .61033E-01    -.59049E-02         .000      .000
    .190    -.98817E-03    -.29876E-03    -.35958E+00     .57132E-01    -.42030E-02         .000      .000
    .200    -.10186E-02    -.34016E-03    -.57844E+00     .39806E-01    -.16793E-02         .000      .000
    .210    -.10177E-02    -.37738E-03    -.76643E+00     .20015E-01     .20705E-02         .000      .000
    .220    -.97532E-03    -.40878E-03    -.96001E+00     .25237E-01     .63885E-02         .000      .000
    .230    -.89153E-03    -.43336E-03    -.12425E+01     .67054E-01     .10222E-01         .000      .000
    .240    -.77822E-03    -.44762E-03    -.16111E+01     .11043E+00     .11841E-01         .000      .000
    .250    -.66016E-03    -.44463E-03    -.19190E+01     .99928E-01     .11812E-01         .000      .000
    .260    -.54668E-03    -.41682E-03    -.19698E+01     .13089E-01     .10375E-01         .000      .000
    .270    -.46289E-03    -.36124E-03    -.16676E+01    -.93022E-01     .59080E-02         .000      .000
    .280    -.43359E-03    -.28231E-03    -.12020E+01    -.12287E+00    -.59075E-04         .000      .000
    .290    -.46363E-03    -.18532E-03    -.61890E+00    -.94149E-01    -.59202E-02         .000      .000
    .300    -.54748E-03    -.77552E-04     .20700E+00    -.61754E-01    -.10435E-01         .000      .000
    .310    -.66278E-03     .26725E-04     .11481E+01    -.20728E-01    -.12084E-01         .000      .000
    .320    -.78432E-03     .11041E-03     .19722E+01     .34884E-01    -.12283E-01         .000      .000
    .330    -.91471E-03     .15877E-03     .24750E+01     .10028E+00    -.14363E-01         .000      .000
    .340    -.10787E-02     .16495E-03     .25628E+01     .13241E+00    -.18616E-01         .000      .000
    .350    -.12919E-02     .13357E-03     .25031E+01     .48320E-01    -.24348E-01         .000      .000
    .360    -.15811E-02     .71487E-04     .26107E+01    -.12070E+00    -.34645E-01         .000      .000
    .370    -.19913E-02    -.21780E-04     .27174E+01    -.21120E+00    -.46826E-01         .000      .000
    .380    -.24970E-02    -.14675E-03     .26811E+01    -.18662E+00    -.52857E-01         .000      .000
    .390    -.30179E-02    -.30341E-03     .27576E+01    -.11212E+00    -.49750E-01         .000      .000
    .400    -.34628E-02    -.50479E-03     .26212E+01     .85365E-01    -.37850E-01         .000      .000
    .410    -.37517E-02    -.76552E-03     .15497E+01     .41408E+00    -.19041E-01         .000      .000
    .420    -.38381E-02    -.10789E-02    -.52050E+00     .66733E+00     .13336E-02         .000      .000
    .430    -.37449E-02    -.14151E-02    -.31179E+01     .65824E+00     .15731E-01         .000      .000
    .440    -.35706E-02    -.17301E-02    -.57325E+01     .38054E+00     .16037E-01         .000      .000
    .450    -.34745E-02    -.19729E-02    -.77979E+01    -.44959E-01     .12961E-02         .000      .000
    .460    -.35842E-02    -.20970E-02    -.86690E+01    -.46357E+00    -.25262E-01         .000      .000
    .470    -.40224E-02    -.20789E-02    -.78677E+01    -.69840E+00    -.64522E-01         .000      .000
    .480    -.48867E-02    -.19325E-02    -.56652E+01    -.59263E+00    -.10736E+00         .000      .000
    .490    -.61316E-02    -.16965E-02    -.23494E+01    -.28850E+00    -.13890E+00         .000      .000
    .500    -.76128E-02    -.14311E-02     .20937E+01    -.11389E-01    -.15489E+00         .000      .000
    .510    -.91899E-02    -.12272E-02     .65524E+01     .32189E+00    -.15896E+00         .000      .000
    .520    -.10730E-01    -.11751E-02     .94164E+01     .72744E+00    -.14440E+00         .000      .000
    .530    -.11974E-01    -.13221E-02     .10483E+02     .89035E+00    -.98737E-01         .000      .000
    .540    -.12603E-01    -.16855E-02     .10203E+02     .74453E+00    -.22527E-01         .000      .000
    .550    -.12342E-01    -.22815E-02     .74321E+01     .78397E+00     .78462E-01         .000      .000
    .560    -.10978E-01    -.30922E-02     .63244E+00     .12620E+01     .19614E+00         .000      .000
    .570    -.83986E-02    -.40232E-02    -.97760E+01     .17784E+01     .31982E+00         .000      .000
    .580    -.46234E-02    -.49132E-02    -.22009E+02     .18380E+01     .43075E+00         .000      .000
    .590     .10935E-03    -.55670E-02    -.34216E+02     .13212E+01     .50965E+00         .000      .000
    .600     .54670E-02    -.57774E-02    -.44716E+02     .40956E+00     .55787E+00         .000      .000
    .610     .11178E-01    -.53484E-02    -.51292E+02    -.67894E+00     .57952E+00         .000      .000
    .620     .16978E-01    -.41525E-02    -.52394E+02    -.14844E+01     .57744E+00         .000      .000
    .630     .22659E-01    -.21665E-02    -.48460E+02    -.15488E+01     .55499E+00         .000      .000
    .640     .28018E-01     .55445E-03    -.40078E+02    -.10710E+01     .51448E+00         .000      .000
    .650     .32890E-01     .38966E-02    -.27294E+02    -.67841E+00     .45641E+00         .000      .000
    .660     .37041E-01     .76918E-02    -.10266E+02    -.83893E+00     .36674E+00         .000      .000
    .670     .40057E-01     .11723E-01     .99671E+01    -.15116E+01     .22680E+00         .000      .000
    .680     .41413E-01     .15751E-01     .32167E+02    -.24790E+01     .37990E-01         .000      .000
    .690     .40736E-01     .19538E-01     .56254E+02    -.36505E+01    -.17512E+00         .000      .000
    .700     .37907E-01     .22807E-01     .82103E+02    -.46413E+01    -.38907E+00         .000      .000
    .710     .33033E-01     .25205E-01     .10679E+03    -.45833E+01    -.57907E+00         .000      .000
    .720     .26548E-01     .26350E-01     .12561E+03    -.31234E+01    -.70252E+00         .000      .000
    .730     .19322E-01     .25927E-01     .13556E+03    -.10123E+01    -.72467E+00         .000      .000
    .740     .12336E-01     .23726E-01     .13471E+03     .95695E+00    -.66281E+00         .000      .000
    .750     .61941E-02     .19672E-01     .11983E+03     .26437E+01    -.56251E+00         .000      .000
    .760     .11405E-02     .13936E-01     .89728E+02     .35643E+01    -.44609E+00         .000      .000
    .770    -.27299E-02     .69893E-02     .49528E+02     .27562E+01    -.33055E+00         .000      .000
    .780    -.55637E-02    -.53101E-03     .62239E+01     .60829E+00    -.24246E+00         .000      .000
    .790    -.76743E-02    -.79915E-02    -.37077E+02    -.10216E+01    -.18228E+00         .000      .000
    .800    -.91831E-02    -.14787E-01    -.78064E+02    -.10865E+01    -.11423E+00         .000      .000
    .810    -.98470E-02    -.20374E-01    -.11237E+03     .28467E-01    -.12896E-01         .000      .000
    .820    -.93364E-02    -.24369E-01    -.13744E+03     .18060E+01     .11968E+00         .000      .000
    .830    -.73600E-02    -.26563E-01    -.15415E+03     .37323E+01     .27998E+00         .000      .000
    .840    -.37043E-02    -.26824E-01    -.16236E+03     .46961E+01     .44963E+00         .000      .000
    .850     .15517E-02    -.25080E-01    -.16024E+03     .39574E+01     .59500E+00         .000      .000
    .860     .79725E-02    -.21356E-01    -.14728E+03     .19488E+01     .67378E+00         .000      .000
    .870     .14709E-01    -.15777E-01    -.12379E+03    -.42594E+00     .65749E+00         .000      .000
    .880     .20831E-01    -.85760E-02    -.89702E+02    -.25364E+01     .55395E+00         .000      .000
    .890     .25518E-01    -.12366E-03    -.44665E+02    -.41293E+01     .36959E+00         .000      .000
    .900     .28008E-01     .90158E-02     .91587E+01    -.47763E+01     .12102E+00         .000      .000
    .910     .27856E-01     .18116E-01     .66685E+02    -.43606E+01    -.15238E+00         .000      .000
    .920     .24955E-01     .26394E-01     .12360E+03    -.35808E+01    -.42762E+00         .000      .000
    .930     .19374E-01     .33062E-01     .17531E+03    -.28954E+01    -.68168E+00         .000      .000
    .940     .11548E-01     .37398E-01     .21613E+03    -.23860E+01    -.86793E+00         .000      .000
    .950     .24331E-02     .38843E-01     .24214E+03    -.21116E+01    -.92912E+00         .000      .000
    .960    -.64928E-02     .37019E-01     .24953E+03    -.14535E+01    -.82761E+00         .000      .000
    .970    -.13757E-01     .31746E-01     .23259E+03     .65940E+00    -.61720E+00         .000      .000
    .980    -.18827E-01     .23165E-01     .18627E+03     .43271E+01    -.40408E+00         .000      .000
    .990    -.21979E-01     .11922E-01     .11296E+03     .72168E+01    -.23440E+00         .000      .000
   1.000    -.23751E-01    -.80381E-03     .27725E+02     .58861E+01    -.13635E+00         .000      .000
   1.010    -.24962E-01    -.13650E-01    -.52633E+02     .61209E+00    -.11394E+00         .000      .000
   1.020    -.26067E-01    -.25435E-01    -.12198E+03    -.42181E+01    -.10089E+00         .000      .000
   1.030    -.26825E-01    -.35227E-01    -.17877E+03    -.50312E+01    -.40542E-01         .000      .000
   1.040    -.26643E-01    -.42388E-01    -.22210E+03    -.11342E+01     .89893E-01         .000      .000
   1.050    -.24793E-01    -.46557E-01    -.25261E+03     .52309E+01     .28901E+00         .000      .000
   1.060    -.20717E-01    -.47536E-01    -.26828E+03     .98423E+01     .53022E+00         .000      .000
   1.070    -.14204E-01    -.45248E-01    -.26556E+03     .98220E+01     .76658E+00         .000      .000
   1.080    -.55882E-02    -.39773E-01    -.24376E+03     .56682E+01     .94291E+00         .000      .000
   1.090     .44184E-02    -.31357E-01    -.20510E+03     .13593E+00     .10495E+01         .000      .000
   1.100     .15281E-01    -.20403E-01    -.15173E+03    -.41769E+01     .11206E+01         .000      .000
   1.110     .26780E-01    -.75362E-02    -.86052E+02    -.57511E+01     .11771E+01         .000      .000
   1.120     .38829E-01     .63524E-02    -.14817E+02    -.40599E+01     .12352E+01         .000      .000
   1.130     .51543E-01     .20239E-01     .53122E+02    -.50207E+00     .13099E+01         .000      .000
   1.140     .65053E-01     .33186E-01     .11276E+03     .20016E+01     .13917E+01         .000      .000
   1.150     .79179E-01     .44434E-01     .16128E+03     .16374E+01     .14139E+01         .000      .000
   1.160     .92819E-01     .53455E-01     .19560E+03    -.12127E+01     .12832E+01         .000      .000
   1.170     .10421E+00     .60033E-01     .21496E+03    -.53732E+01     .96372E+00         .000      .000
   1.180     .11141E+00     .64260E-01     .22529E+03    -.10144E+02     .44029E+00         .000      .000
   1.190     .11251E+00     .66323E-01     .23389E+03    -.14125E+02    -.23356E+00         .000      .000
   1.200     .10664E+00     .66295E-01     .24289E+03    -.15510E+02    -.93757E+00         .000      .000
   1.210     .93837E-01     .64070E-01     .25164E+03    -.13548E+02    -.16187E+01         .000      .000
   1.220     .74427E-01     .59362E-01     .25414E+03    -.81970E+01    -.22514E+01         .000      .000
   1.230     .49196E-01     .51908E-01     .24379E+03    -.17709E+01    -.27696E+01         .000      .000
   1.240     .19514E-01     .41703E-01     .22352E+03     .16534E+01    -.31453E+01         .000      .000
   1.250    -.13232E-01     .28884E-01     .19689E+03     .13568E+01    -.33770E+01         .000      .000
   1.260    -.47458E-01     .13629E-01     .15926E+03     .34807E+00    -.34373E+01         .000      .000
   1.270    -.81349E-01    -.37161E-02     .10682E+03     .10681E+01    -.33086E+01         .000      .000
   1.280    -.11304E+00    -.22610E-01     .39626E+02     .42665E+01    -.30045E+01         .000      .000
   1.290    -.14100E+00    -.42356E-01    -.41376E+02     .91928E+01    -.25707E+01         .000      .000
   1.300    -.16418E+00    -.62064E-01    -.13240E+03     .13654E+02    -.20539E+01         .000      .000
   1.310    -.18194E+00    -.80640E-01    -.22530E+03     .15328E+02    -.14958E+01         .000      .000
   1.320    -.19411E+00    -.96903E-01    -.31049E+03     .13709E+02    -.94152E+00         .000      .000
   1.330    -.20082E+00    -.10974E+00    -.38096E+03     .10522E+02    -.40171E+00         .000      .000
   1.340    -.20221E+00    -.11823E+00    -.43182E+03     .79531E+01     .11884E+00         .000      .000
   1.350    -.19848E+00    -.12174E+00    -.45927E+03     .73030E+01     .62992E+00         .000      .000
   1.360    -.18953E+00    -.11998E+00    -.46214E+03     .85075E+01     .11657E+01         .000      .000
   1.370    -.17514E+00    -.11303E+00    -.44013E+03     .10153E+02     .17078E+01         .000      .000
   1.380    -.15555E+00    -.10134E+00    -.39628E+03     .11158E+02     .21968E+01         .000      .000
   1.390    -.13181E+00    -.85556E-01    -.33611E+03     .10689E+02     .25049E+01         .000      .000
   1.400    -.10659E+00    -.66388E-01    -.26164E+03     .76601E+01     .24717E+01         .000      .000
   1.410    -.83518E-01    -.44535E-01    -.17036E+03     .13032E+01     .20962E+01         .000      .000
   1.420    -.65303E-01    -.20763E-01    -.54540E+02    -.83488E+01     .15295E+01         .000      .000
   1.430    -.53116E-01     .37367E-02     .88756E+02    -.17539E+02     .90858E+00         .000      .000
   1.440    -.47003E-01     .27043E-01     .24036E+03    -.19002E+02     .32838E+00         .000      .000
   1.450    -.46037E-01     .46882E-01     .37011E+03    -.10305E+02    -.99405E-01         .000      .000
   1.460    -.48241E-01     .61313E-01     .46217E+03     .19210E+01    -.30577E+00         .000      .000
   1.470    -.51386E-01     .68996E-01     .51466E+03     .92500E+01    -.28454E+00         .000      .000
   1.480    -.53338E-01     .69174E-01     .52368E+03     .91380E+01    -.84926E-01         .000      .000
   1.490    -.52830E-01     .61789E-01     .48296E+03     .46414E+01     .19255E+00         .000      .000
   1.500    -.49504E-01     .47604E-01     .39037E+03     .38409E+00     .46620E+00         .000      .000
   1.510    -.43665E-01     .28213E-01     .25494E+03    -.15622E+01     .69221E+00         .000      .000
   1.520    -.35825E-01     .57977E-02     .95818E+02    -.17146E+01     .86848E+00         .000      .000
   1.530    -.26512E-01    -.17283E-01    -.67333E+02    -.80312E+00     .97991E+00         .000      .000
   1.540    -.16503E-01    -.38806E-01    -.22072E+03     .11195E+01     .10086E+01         .000      .000
   1.550    -.64409E-02    -.56773E-01    -.35368E+03     .32617E+01     .10065E+01         .000      .000
   1.560     .35700E-02    -.69454E-01    -.45233E+03     .36409E+01     .98653E+00         .000      .000
   1.570     .12943E-01    -.75625E-01    -.50559E+03     .21630E+01     .86326E+00         .000      .000
   1.580     .20401E-01    -.74737E-01    -.51347E+03     .72890E+00     .61031E+00         .000      .000
   1.590     .24844E-01    -.66759E-01    -.47512E+03    -.10150E+01     .26529E+00         .000      .000
   1.600     .25478E-01    -.52215E-01    -.38540E+03    -.41340E+01    -.14817E+00         .000      .000
   1.610     .21851E-01    -.32434E-01    -.25071E+03    -.67329E+01    -.56952E+00         .000      .000
   1.620     .14440E-01    -.94413E-02    -.88657E+02    -.67051E+01    -.88501E+00         .000      .000
   1.630     .46741E-02     .14361E-01     .83057E+02    -.42006E+01    -.10440E+01         .000      .000
   1.640    -.59383E-02     .36412E-01     .24472E+03    -.35345E-02    -.10528E+01         .000      .000
   1.650    -.15832E-01     .54332E-01     .37556E+03     .42764E+01    -.89772E+00         .000      .000
   1.660    -.23484E-01     .66338E-01     .46433E+03     .58602E+01    -.62106E+00         .000      .000
   1.670    -.28127E-01     .71346E-01     .50570E+03     .43076E+01    -.30583E+00         .000      .000
   1.680    -.29737E-01     .68988E-01     .49401E+03     .17377E+01    -.30792E-01         .000      .000
   1.690    -.29062E-01     .59734E-01     .43135E+03    -.49618E+00     .14863E+00         .000      .000
   1.700    -.27136E-01     .44803E-01     .32901E+03    -.21620E+01     .21675E+00         .000      .000
   1.710    -.25138E-01     .25899E-01     .20221E+03    -.31938E+01     .16179E+00         .000      .000
   1.720    -.24210E-01     .49333E-02     .65045E+02    -.31667E+01     .14338E-01         .000      .000
   1.730    -.24995E-01    -.16163E-01    -.69759E+02    -.21119E+01    -.17613E+00         .000      .000
   1.740    -.27787E-01    -.35593E-01    -.18964E+03    -.58983E+00    -.38309E+00         .000      .000
   1.750    -.32504E-01    -.51869E-01    -.28576E+03     .11248E+01    -.54457E+00         .000      .000
   1.760    -.38319E-01    -.63882E-01    -.35186E+03     .24836E+01    -.59861E+00         .000      .000
   1.770    -.44110E-01    -.70978E-01    -.38397E+03     .33931E+01    -.54258E+00         .000      .000
   1.780    -.48877E-01    -.73029E-01    -.38570E+03     .48766E+01    -.39842E+00         .000      .000
   1.790    -.51863E-01    -.70287E-01    -.36323E+03     .67895E+01    -.19022E+00         .000      .000
   1.800    -.52580E-01    -.63221E-01    -.31862E+03     .74667E+01     .48027E-01         .000      .000
   1.810    -.50875E-01    -.52523E-01    -.25357E+03     .60642E+01     .29459E+00         .000      .000
   1.820    -.46595E-01    -.39114E-01    -.17342E+03     .33754E+01     .56934E+00         .000      .000
   1.830    -.39420E-01    -.24082E-01    -.85608E+02     .92874E+00     .86500E+00         .000      .000
