


 TIME HISTORY FOR STORY NO.  3



    TIME   DISPLACEMENT    STORY DRIFT    STORY SHEAR   ACCELERATION     VELOCITY          DAMAGE    DAMAGE
                                                                                          BEAM-SLAB  COL-WALL

    .000     .00000E+00     .00000E+00     .00000E+00     .00000E+00     .00000E+00         .000      .000
    .010    -.19804E-05     .40021E-07     .15036E-01    -.33007E-02    -.31149E-04         .000      .000
    .020    -.56668E-06    -.58680E-06    -.11405E-01     .75475E-02    -.67836E-04         .000      .000
    .030    -.32112E-05    -.61486E-06    -.40866E-02    -.44494E-02    -.78760E-04         .000      .000
    .040    -.24911E-05    -.94243E-06     .19557E-02     .36192E-02    -.17612E-03         .000      .000
    .050    -.67816E-05    -.13645E-05     .31682E-02    -.31759E-02    -.30693E-03         .000      .000
    .060    -.90892E-05    -.23821E-05     .50708E-02     .59188E-02    -.55742E-03         .000      .000
    .070    -.17818E-04    -.38605E-05     .11618E-01     .20609E-03    -.79138E-03         .000      .000
    .080    -.25123E-04    -.67410E-05     .19064E-03     .13129E-01    -.10696E-02         .000      .000
    .090    -.39028E-04    -.10695E-04    -.22660E-01     .97097E-02    -.13120E-02         .000      .000
    .100    -.51628E-04    -.16156E-04    -.56886E-01     .22526E-01    -.16158E-02         .000      .000
    .110    -.71176E-04    -.22617E-04    -.91450E-01     .19004E-01    -.18872E-02         .000      .000
    .120    -.89619E-04    -.30594E-04    -.13436E+00     .33662E-01    -.22142E-02         .000      .000
    .130    -.11519E-03    -.39584E-04    -.17383E+00     .31770E-01    -.24776E-02         .000      .000
    .140    -.13915E-03    -.50171E-04    -.21913E+00     .47634E-01    -.27149E-02         .000      .000
    .150    -.16691E-03    -.61950E-04    -.27491E+00     .48405E-01    -.21977E-02         .000      .000
    .160    -.18210E-03    -.74926E-04    -.40657E+00     .71337E-01    -.13686E-02         .000      .000
    .170    -.19802E-03    -.85170E-04    -.47336E+00     .41461E-01    -.16915E-02         .000      .000
    .180    -.22117E-03    -.92304E-04    -.29918E+00     .69955E-02    -.35426E-02         .000      .000
    .190    -.27113E-03    -.10262E-03    -.64715E-01     .17331E-02    -.60736E-02         .000      .000
    .200    -.34220E-03    -.12381E-03    -.19546E-01     .61999E-01    -.84673E-02         .000      .000
    .210    -.43667E-03    -.15751E-03    -.17538E+00     .10803E+00    -.97508E-02         .000      .000
    .220    -.53286E-03    -.20294E-03    -.52354E+00     .15559E+00    -.97108E-02         .000      .000
    .230    -.62894E-03    -.25490E-03    -.10027E+01     .16044E+00    -.91114E-02         .000      .000
    .240    -.71568E-03    -.30653E-03    -.14142E+01     .15626E+00    -.86635E-02         .000      .000
    .250    -.80240E-03    -.35260E-03    -.16326E+01     .14076E+00    -.82811E-02         .000      .000
    .260    -.87793E-03    -.39277E-03    -.16949E+01     .16179E+00    -.68710E-02         .000      .000
    .270    -.92928E-03    -.42749E-03    -.17532E+01     .18448E+00    -.23243E-02         .000      .000
    .280    -.91596E-03    -.45430E-03    -.19611E+01     .19733E+00     .47458E-02         .000      .000
    .290    -.83448E-03    -.46169E-03    -.20282E+01     .78448E-01     .11744E-01         .000      .000
    .300    -.68948E-03    -.44156E-03    -.16233E+01    -.10646E+00     .16281E-01         .000      .000
    .310    -.52559E-03    -.39542E-03    -.77019E+00    -.29695E+00     .15810E-01         .000      .000
    .320    -.39075E-03    -.33398E-03     .49366E+00    -.42519E+00     .10137E-01         .000      .000
    .330    -.32716E-03    -.27824E-03     .18010E+01    -.45235E+00     .31831E-02         .000      .000
    .340    -.31368E-03    -.25237E-03     .23370E+01    -.32516E+00     .24876E-03         .000      .000
    .350    -.28705E-03    -.26072E-03     .16046E+01    -.16525E+00     .77878E-02         .000      .000
    .360    -.11958E-03    -.27790E-03    -.38534E+00    -.51829E-01     .26780E-01         .000      .000
    .370     .24371E-03    -.24385E-03    -.24247E+01    -.24083E+00     .44218E-01         .000      .000
    .380     .69526E-03    -.98662E-04    -.19674E+01    -.81747E+00     .40890E-01         .000      .000
    .390     .97202E-03     .14447E-03     .21591E+01    -.13784E+01     .10971E-01         .000      .000
    .400     .87575E-03     .37211E-03     .75027E+01    -.12208E+01    -.30426E-01         .000      .000
    .410     .40685E-03     .44869E-03     .99555E+01    -.28132E+00    -.58976E-01         .000      .000
    .420    -.23651E-03     .31748E-03     .74214E+01     .79829E+00    -.67675E-01         .000      .000
    .430    -.90888E-03     .33020E-04     .17754E+01     .11896E+01    -.65213E-01         .000      .000
    .440    -.15439E-02    -.31392E-03    -.43204E+01     .11087E+01    -.63446E-01         .000      .000
    .450    -.22149E-02    -.64597E-03    -.92524E+01     .10602E+01    -.72692E-01         .000      .000
    .460    -.30266E-02    -.91723E-03    -.11357E+02     .13078E+01    -.90541E-01         .000      .000
    .470    -.40052E-02    -.11473E-02    -.10793E+02     .19085E+01    -.10225E+00         .000      .000
    .480    -.50123E-02    -.14054E-02    -.10043E+02     .27085E+01    -.96280E-01         .000      .000
    .490    -.58615E-02    -.17361E-02    -.10951E+02     .31684E+01    -.69706E-01         .000      .000
    .500    -.63370E-02    -.21263E-02    -.13828E+02     .31014E+01    -.22316E-01         .000      .000
    .510    -.62742E-02    -.25004E-02    -.18123E+02     .25616E+01     .35119E-01         .000      .000
    .520    -.56748E-02    -.27248E-02    -.20727E+02     .14473E+01     .80497E-01         .000      .000
    .530    -.47586E-02    -.26933E-02    -.17617E+02    -.10034E+00     .97769E-01         .000      .000
    .540    -.38195E-02    -.24333E-02    -.85808E+01    -.13872E+01     .85316E-01         .000      .000
    .550    -.30932E-02    -.20927E-02     .27138E+01    -.19979E+01     .60641E-01         .000      .000
    .560    -.25502E-02    -.18485E-02     .11025E+02    -.19147E+01     .52788E-01         .000      .000
    .570    -.19436E-02    -.17870E-02     .12468E+02    -.17181E+01     .72744E-01         .000      .000
    .580    -.10730E-02    -.18275E-02     .85248E+01    -.22696E+01     .99186E-01         .000      .000
    .590    -.40205E-04    -.17967E-02     .49304E+01    -.36964E+01     .10177E+00         .000      .000
    .600     .78797E-03    -.15883E-02     .57045E+01    -.49731E+01     .52492E-01         .000      .000
    .610     .80196E-03    -.12363E-02     .12285E+02    -.53768E+01    -.58852E-01         .000      .000
    .620    -.51503E-03    -.95253E-03     .22436E+02    -.43462E+01    -.20775E+00         .000      .000
    .630    -.33435E-02    -.10768E-02     .28534E+02    -.17250E+01    -.35390E+00         .000      .000
    .640    -.74512E-02    -.18870E-02     .23159E+02     .17993E+01    -.45788E+00         .000      .000
    .650    -.12235E-01    -.34395E-02     .34801E+01     .53543E+01    -.48228E+00         .000      .000
    .660    -.16799E-01    -.55111E-02    -.28565E+02     .84010E+01    -.41774E+00         .000      .000
    .670    -.20223E-01    -.76117E-02    -.64062E+02     .10168E+02    -.24353E+00         .000      .000
    .680    -.21309E-01    -.91628E-02    -.94826E+02     .10998E+02     .38683E-01         .000      .000
    .690    -.19429E-01    -.95567E-02    -.11014E+03     .93165E+01     .32602E+00         .000      .000
    .700    -.15158E-01    -.83883E-02    -.93014E+02     .38495E+01     .50309E+00         .000      .000
    .710    -.98045E-02    -.59477E-02    -.44302E+02    -.21949E+01     .55091E+00         .000      .000
    .720    -.44016E-02    -.31312E-02     .10975E+02    -.50431E+01     .52086E+00         .000      .000
    .730     .46553E-03    -.75213E-03     .51312E+02    -.58772E+01     .44555E+00         .000      .000
    .740     .44011E-02     .80860E-03     .73378E+02    -.76171E+01     .33728E+00         .000      .000
    .750     .71828E-02     .14397E-02     .77242E+02    -.98024E+01     .22126E+00         .000      .000
    .760     .90063E-02     .12632E-02     .60883E+02    -.10249E+02     .15972E+00         .000      .000
    .770     .10675E-01     .76967E-03     .28929E+02    -.86862E+01     .18697E+00         .000      .000
    .780     .12831E-01     .76757E-03     .38378E+00    -.80572E+01     .23850E+00         .000      .000
    .790     .15171E-01     .18807E-02    -.16552E+01    -.10045E+02     .20803E+00         .000      .000
    .800     .16593E-01     .39702E-02     .25800E+02    -.11768E+02     .59926E-01         .000      .000
    .810     .16214E-01     .61798E-02     .60767E+02    -.93087E+01    -.13390E+00         .000      .000
    .820     .14089E-01     .75872E-02     .77017E+02    -.29436E+01    -.27681E+00         .000      .000
    .830     .10975E-01     .77891E-02     .65081E+02     .32382E+01    -.33209E+00         .000      .000
    .840     .75530E-02     .69559E-02     .32255E+02     .63581E+01    -.35601E+00         .000      .000
    .850     .37136E-02     .55606E-02    -.58340E+01     .69544E+01    -.42154E+00         .000      .000
    .860    -.10571E-02     .40125E-02    -.36782E+02     .83776E+01    -.53959E+00         .000      .000
    .870    -.71101E-02     .24842E-02    -.56341E+02     .12503E+02    -.66718E+00         .000      .000
    .880    -.14205E-01     .91985E-03    -.65069E+02     .18148E+02    -.73693E+00         .000      .000
    .890    -.21442E-01    -.91666E-03    -.69971E+02     .23280E+02    -.68543E+00         .000      .000
    .900    -.27359E-01    -.32381E-02    -.82687E+02     .26607E+02    -.46808E+00         .000      .000
    .910    -.30140E-01    -.58969E-02    -.10974E+03     .27214E+02    -.52040E-01         .000      .000
    .920    -.27784E-01    -.81864E-02    -.14568E+03     .24263E+02     .54810E+00         .000      .000
    .930    -.19036E-01    -.89160E-02    -.16927E+03     .15917E+02     .11899E+01         .000      .000
    .940    -.48098E-02    -.69170E-02    -.14638E+03     .80446E+00     .15851E+01         .000      .000
    .950     .11092E-01    -.19660E-02    -.51363E+02    -.18197E+02     .15109E+01         .000      .000
    .960     .24054E-01     .44684E-02     .95098E+02    -.31661E+02     .10348E+01         .000      .000
    .970     .31632E-01     .97996E-02     .22491E+03    -.32530E+02     .51268E+00         .000      .000
    .980     .35286E-01     .12031E-01     .27138E+03    -.24040E+02     .28029E+00         .000      .000
    .990     .38371E-01     .11185E-01     .22413E+03    -.18455E+02     .38318E+00         .000      .000
   1.000     .43219E-01     .91091E-02     .13072E+03    -.23045E+02     .56657E+00         .000      .000
   1.010     .48747E-01     .81009E-02     .56873E+02    -.34285E+02     .46657E+00         .000      .000
   1.020     .51135E-01     .94232E-02     .49459E+02    -.41681E+02    -.53398E-01         .000      .000
   1.030     .46910E-01     .12441E-01     .10262E+03    -.35675E+02    -.80182E+00         .000      .000
   1.040     .35352E-01     .15102E-01     .16534E+03    -.16657E+02    -.14767E+01         .000      .000
   1.050     .18138E-01     .15286E-01     .18570E+03     .53399E+01    -.19275E+01         .000      .000
   1.060    -.23690E-02     .11794E-01     .13901E+03     .21801E+02    -.21311E+01         .000      .000
   1.070    -.23575E-01     .46358E-02     .19609E+02     .33926E+02    -.20606E+01         .000      .000
   1.080    -.42715E-01    -.47373E-02    -.15458E+03     .44956E+02    -.17306E+01         .000      .000
   1.090    -.57650E-01    -.13611E-01    -.32236E+03     .52168E+02    -.12413E+01         .000      .000
   1.100    -.67456E-01    -.19407E-01    -.41154E+03     .52926E+02    -.72641E+00         .000      .000
   1.110    -.72308E-01    -.21234E-01    -.39563E+03     .49601E+02    -.24873E+00         .000      .000
   1.120    -.72376E-01    -.20111E-01    -.30707E+03     .46224E+02     .24619E+00         .000      .000
   1.130    -.67131E-01    -.17861E-01    -.20322E+03     .42235E+02     .81562E+00         .000      .000
   1.140    -.56075E-01    -.15784E-01    -.12091E+03     .32175E+02     .13796E+01         .000      .000
   1.150    -.40148E-01    -.14185E-01    -.60925E+02     .12907E+02     .17615E+01         .000      .000
   1.160    -.21796E-01    -.12814E-01    -.98697E+01    -.10464E+02     .18617E+01         .000      .000
   1.170    -.37494E-02    -.11338E-01     .38824E+02    -.29561E+02     .17140E+01         .000      .000
   1.180     .12032E-01    -.94431E-02     .90500E+02    -.41553E+02     .14304E+01         .000      .000
   1.190     .24772E-01    -.70070E-02     .14963E+03    -.48686E+02     .11199E+01         .000      .000
   1.200     .34638E-01    -.43079E-02     .20799E+03    -.53253E+02     .87153E+00         .000      .000
   1.210     .42568E-01    -.18459E-02     .24371E+03    -.55285E+02     .73256E+00         .000      .000
   1.220     .49543E-01     .24525E-03     .24355E+03    -.55677E+02     .66886E+00         .000      .000
   1.230     .56006E-01     .24487E-02     .21942E+03    -.55875E+02     .62329E+00         .000      .000
   1.240     .61789E-01     .54437E-02     .19133E+03    -.54879E+02     .51247E+00         .000      .000
   1.250     .65652E-01     .96685E-02     .17772E+03    -.51791E+02     .22130E+00         .000      .000
   1.260     .65467E-01     .14908E-01     .18996E+03    -.45312E+02    -.29297E+00         .000      .000
   1.270     .59539E-01     .20003E-01     .21257E+03    -.32166E+02    -.88202E+00         .000      .000
   1.280     .48458E-01     .23325E-01     .20209E+03    -.10472E+02    -.12823E+01         .000      .000
   1.290     .35059E-01     .24019E-01     .12711E+03     .14260E+02    -.13364E+01         .000      .000
   1.300     .22757E-01     .22715E-01     .22211E+01     .33065E+02    -.10855E+01         .000      .000
   1.310     .13654E-01     .21010E-01    -.12806E+03     .42513E+02    -.74286E+00         .000      .000
   1.320     .72691E-02     .20460E-01    -.21620E+03     .45396E+02    -.58742E+00         .000      .000
   1.330     .12306E-02     .21634E-01    -.23167E+03     .47623E+02    -.63156E+00         .000      .000
   1.340    -.50977E-02     .23575E-01    -.19909E+03     .56989E+02    -.59493E+00         .000      .000
   1.350    -.97986E-02     .24846E-01    -.17231E+03     .69897E+02    -.30182E+00         .000      .000
   1.360    -.10518E-01     .24941E-01    -.16402E+03     .73053E+02     .17185E+00         .000      .000
   1.370    -.64109E-02     .24096E-01    -.15887E+03     .62274E+02     .63197E+00         .000      .000
   1.380     .16184E-02     .22682E-01    -.15105E+03     .45302E+02     .94490E+00         .000      .000
   1.390     .11975E-01     .21226E-01    -.13636E+03     .29898E+02     .11060E+01         .000      .000
   1.400     .23543E-01     .20395E-01    -.10056E+03     .17202E+02     .12080E+01         .000      .000
   1.410     .36198E-01     .20569E-01    -.36047E+02     .48703E+01     .13278E+01         .000      .000
   1.420     .49982E-01     .21631E-01     .48815E+02    -.96691E+01     .14116E+01         .000      .000
   1.430     .63972E-01     .23143E-01     .14228E+03    -.26984E+02     .13588E+01         .000      .000
   1.440     .76638E-01     .24440E-01     .22743E+03    -.43013E+02     .11521E+01         .000      .000
   1.450     .86674E-01     .24943E-01     .28376E+03    -.53708E+02     .84397E+00         .000      .000
   1.460     .93412E-01     .24572E-01     .30618E+03    -.59409E+02     .50358E+00         .000      .000
   1.470     .96777E-01     .23698E-01     .30481E+03    -.61987E+02     .17217E+00         .000      .000
   1.480     .96808E-01     .22777E-01     .29127E+03    -.62132E+02    -.17343E+00         .000      .000
   1.490     .93031E-01     .22099E-01     .27562E+03    -.59644E+02    -.60202E+00         .000      .000
   1.500     .84485E-01     .21569E-01     .26344E+03    -.53176E+02    -.11147E+01         .000      .000
   1.510     .70866E-01     .20591E-01     .24353E+03    -.40154E+02    -.15879E+01         .000      .000
   1.520     .53275E-01     .18484E-01     .19423E+03    -.21076E+02    -.18979E+01         .000      .000
   1.530     .33512E-01     .15122E-01     .11227E+03    -.15258E+01    -.20292E+01         .000      .000
   1.540     .12991E-01     .10937E-01     .16070E+02     .14135E+02    -.20713E+01         .000      .000
   1.550    -.79593E-02     .64243E-02    -.73643E+02     .26493E+02    -.21258E+01         .000      .000
   1.560    -.29573E-01     .17776E-02    -.14659E+03     .39115E+02    -.21933E+01         .000      .000
   1.570    -.51483E-01    -.31441E-02    -.20563E+03     .54039E+02    -.21581E+01         .000      .000
   1.580    -.71925E-01    -.85465E-02    -.26039E+03     .69129E+02    -.18818E+01         .000      .000
   1.590    -.88270E-01    -.14336E-01    -.31550E+03     .79052E+02    -.13532E+01         .000      .000
   1.600    -.98516E-01    -.19972E-01    -.36037E+03     .79179E+02    -.68336E+00         .000      .000
   1.610    -.10162E+00    -.24779E-01    -.38120E+03     .70896E+02     .83873E-01         .000      .000
   1.620    -.96468E-01    -.28190E-01    -.38051E+03     .59429E+02     .96314E+00         .000      .000
   1.630    -.82314E-01    -.29400E-01    -.35429E+03     .43707E+02     .18529E+01         .000      .000
   1.640    -.59955E-01    -.27494E-01    -.27500E+03     .19311E+02     .25787E+01         .000      .000
   1.650    -.31758E-01    -.22418E-01    -.13384E+03    -.10579E+02     .30017E+01         .000      .000
   1.660    -.10904E-02    -.15235E-01     .40707E+02    -.38897E+02     .30764E+01         .000      .000
   1.670     .28730E-01    -.74445E-02     .21049E+03    -.61689E+02     .28402E+01         .000      .000
   1.680     .54788E-01    -.33414E-03     .34908E+03    -.79303E+02     .23260E+01         .000      .000
   1.690     .74440E-01     .52200E-02     .44518E+03    -.92567E+02     .15693E+01         .000      .000
   1.700     .85695E-01     .86418E-02     .49035E+03    -.98796E+02     .67064E+00         .000      .000
   1.710     .87950E-01     .97264E-02     .47584E+03    -.94728E+02    -.19830E+00         .000      .000
   1.720     .82449E-01     .88885E-02     .40450E+03    -.81125E+02    -.85272E+00         .000      .000
   1.730     .71757E-01     .71606E-02     .29562E+03    -.62599E+02    -.12512E+01         .000      .000
   1.740     .57953E-01     .58275E-02     .18418E+03    -.44807E+02    -.14927E+01         .000      .000
   1.750     .42304E-01     .56524E-02     .96281E+02    -.27366E+02    -.16126E+01         .000      .000
   1.760     .26168E-01     .65257E-02     .24097E+02    -.60771E+01    -.15919E+01         .000      .000
   1.770     .10779E-01     .81108E-02    -.42742E+02     .16541E+02    -.14795E+01         .000      .000
   1.780    -.32798E-02     .10165E-01    -.94602E+02     .34887E+02    -.13255E+01         .000      .000
   1.790    -.15655E-01     .12149E-01    -.13381E+03     .49542E+02    -.11476E+01         .000      .000
   1.800    -.26272E-01     .13422E-01    -.17523E+03     .62129E+02    -.98174E+00         .000      .000
   1.810    -.35267E-01     .13737E-01    -.21779E+03     .71725E+02    -.80924E+00         .000      .000
   1.820    -.42190E-01     .13105E-01    -.25661E+03     .78683E+02    -.55656E+00         .000      .000
   1.830    -.46017E-01     .11749E-01    -.29098E+03     .82277E+02    -.19052E+00         .000      .000
