


 TIME HISTORY FOR STORY NO.  6



    TIME   DISPLACEMENT    STORY DRIFT    STORY SHEAR   ACCELERATION     VELOCITY          DAMAGE    DAMAGE
                                                                                          BEAM-SLAB  COL-WALL

    .000     .00000E+00     .00000E+00     .00000E+00     .00000E+00     .00000E+00         .000      .000
    .010    -.19444E-05    -.11034E-08    -.17877E-04     .22775E-04    -.16974E-04         .000      .000
    .020    -.35596E-06    -.43193E-08    -.21342E-02     .65126E-03    -.66748E-04         .000      .000
    .030    -.32289E-05     .16772E-06    -.70509E-03    -.36107E-03    -.10409E-03         .000      .000
    .040    -.26187E-05     .38119E-06     .95421E-02    -.19509E-02    -.19196E-03         .000      .000
    .050    -.73151E-05     .25529E-06     .66264E-02    -.86668E-03    -.35622E-03         .000      .000
    .060    -.10045E-04     .43282E-07     .40140E-02    -.34257E-03    -.60961E-03         .000      .000
    .070    -.19592E-04    -.77615E-07     .26432E-02    -.31657E-03    -.89046E-03         .000      .000
    .080    -.28049E-04     .23297E-07     .97790E-02    -.17805E-02    -.12278E-02         .000      .000
    .090    -.44359E-04     .27315E-06     .21709E-01    -.45746E-02    -.16306E-02         .000      .000
    .100    -.61063E-04     .48403E-06     .48657E-01    -.99632E-02    -.21512E-02         .000      .000
    .110    -.87713E-04    -.31997E-07     .77286E-01    -.15269E-01    -.27720E-02         .000      .000
    .120    -.11695E-03    -.19209E-05     .10648E+00    -.20134E-01    -.35234E-02         .000      .000
    .130    -.15842E-03    -.57786E-05     .12583E+00    -.23249E-01    -.43477E-02         .000      .000
    .140    -.20404E-03    -.11868E-04     .14421E+00    -.26131E-01    -.52125E-02         .000      .000
    .150    -.26059E-03    -.20502E-04     .15621E+00    -.28359E-01    -.54580E-02         .000      .000
    .160    -.31260E-03    -.31853E-04     .17312E+00    -.31814E-01    -.55202E-02         .000      .000
    .170    -.37507E-03    -.46494E-04     .19669E+00    -.36529E-01    -.68048E-02         .000      .000
    .180    -.45256E-03    -.65928E-04     .20943E+00    -.34774E-01    -.92394E-02         .000      .000
    .190    -.56099E-03    -.91469E-04     .11388E+00    -.81085E-02    -.12014E-01         .000      .000
    .200    -.69210E-03    -.11936E-03    -.70441E-01     .28936E-01    -.14576E-01         .000      .000
    .210    -.84991E-03    -.14205E-03    -.16181E+00     .35928E-01    -.16373E-01         .000      .000
    .220    -.10172E-02    -.15619E-03    -.96864E-02    -.61340E-02    -.17466E-01         .000      .000
    .230    -.12004E-02    -.16744E-03     .32370E+00    -.75344E-01    -.18888E-01         .000      .000
    .240    -.13977E-02    -.18694E-03     .67590E+00    -.13707E+00    -.21102E-01         .000      .000
    .250    -.16238E-02    -.22563E-03     .85258E+00    -.15612E+00    -.23716E-01         .000      .000
    .260    -.18683E-02    -.28793E-03     .76048E+00    -.12339E+00    -.25219E-01         .000      .000
    .270    -.21168E-02    -.36952E-03     .46654E+00    -.62317E-01    -.23349E-01         .000      .000
    .280    -.23256E-02    -.46127E-03     .16550E+00    -.11833E-01    -.18585E-01         .000      .000
    .290    -.24860E-02    -.55730E-03    -.12843E-01     .12286E-01    -.13070E-01         .000      .000
    .300    -.25890E-02    -.65968E-03    -.16499E+00     .45824E-01    -.81468E-02         .000      .000
    .310    -.26572E-02    -.77270E-03    -.61023E+00     .15243E+00    -.56740E-02         .000      .000
    .320    -.27093E-02    -.88887E-03    -.14742E+01     .33673E+00    -.52592E-02         .000      .000
    .330    -.27572E-02    -.98488E-03    -.25406E+01     .53920E+00    -.33135E-02         .000      .000
    .340    -.27580E-02    -.10296E-02    -.33660E+01     .66587E+00     .38751E-02         .000      .000
    .350    -.26482E-02    -.99895E-03    -.34492E+01     .62163E+00     .20459E-01         .000      .000
    .360    -.23204E-02    -.89335E-03    -.25272E+01     .38303E+00     .45581E-01         .000      .000
    .370    -.17514E-02    -.74805E-03    -.94567E+00     .57487E-01     .66313E-01         .000      .000
    .380    -.10598E-02    -.62173E-03     .33040E+00    -.13147E+00     .67448E-01         .000      .000
    .390    -.47083E-03    -.56238E-03    -.77119E-01     .81693E-01     .48173E-01         .000      .000
    .400    -.11133E-03    -.55150E-03    -.28355E+01     .73060E+00     .24358E-01         .000      .000
    .410     .63920E-04    -.47545E-03    -.63825E+01     .13670E+01     .14571E-01         .000      .000
    .420     .22204E-03    -.19005E-03    -.72946E+01     .13042E+01     .17152E-01         .000      .000
    .430     .39970E-03     .34556E-03    -.32859E+01     .26905E+00     .17590E-01         .000      .000
    .440     .52253E-03     .99455E-03     .41884E+01    -.12322E+01     .29390E-02         .000      .000
    .450     .37836E-03     .15199E-02     .10901E+02    -.23385E+01    -.35462E-01         .000      .000
    .460    -.24148E-03     .17450E-02     .13681E+02    -.25931E+01    -.90228E-01         .000      .000
    .470    -.14151E-02     .16416E-02     .12345E+02    -.21322E+01    -.14179E+00         .000      .000
    .480    -.30215E-02     .13078E-02     .90590E+01    -.14671E+01    -.17684E+00         .000      .000
    .490    -.48876E-02     .87685E-03     .68102E+01    -.11613E+01    -.19278E+00         .000      .000
    .500    -.68135E-02     .41101E-03     .73353E+01    -.14174E+01    -.18963E+00         .000      .000
    .510    -.86512E-02    -.14575E-03     .96984E+01    -.19125E+01    -.17762E+00         .000      .000
    .520    -.10392E-01    -.91649E-03     .11317E+02    -.21084E+01    -.17336E+00         .000      .000
    .530    -.12162E-01    -.20001E-02     .95926E+01    -.15348E+01    -.18194E+00         .000      .000
    .540    -.14045E-01    -.33882E-02     .29156E+01     .20931E-01    -.19482E+00         .000      .000
    .550    -.16002E-01    -.49085E-02    -.78383E+01     .22040E+01    -.19101E+00         .000      .000
    .560    -.17729E-01    -.62582E-02    -.18686E+02     .41121E+01    -.14662E+00         .000      .000
    .570    -.18801E-01    -.71485E-02    -.24788E+02     .48688E+01    -.62716E-01         .000      .000
    .580    -.18956E-01    -.74671E-02    -.23711E+02     .42372E+01     .29326E-01         .000      .000
    .590    -.18297E-01    -.73443E-02    -.17626E+02     .29139E+01     .97169E-01         .000      .000
    .600    -.17178E-01    -.70472E-02    -.12394E+02     .21273E+01     .11608E+00         .000      .000
    .610    -.16159E-01    -.67502E-02    -.12840E+02     .25877E+01     .79979E-01         .000      .000
    .620    -.15680E-01    -.63775E-02    -.18528E+02     .38826E+01     .13181E-01         .000      .000
    .630    -.15905E-01    -.56493E-02    -.24227E+02     .48067E+01    -.57122E-01         .000      .000
    .640    -.16780E-01    -.42766E-02    -.22816E+02     .39945E+01    -.11522E+00         .000      .000
    .650    -.18131E-01    -.22055E-02    -.94344E+01     .76697E+00    -.14982E+00         .000      .000
    .660    -.19734E-01     .22967E-03     .14721E+02    -.42661E+01    -.17141E+00         .000      .000
    .670    -.21453E-01     .23647E-02     .42542E+02    -.95109E+01    -.16053E+00         .000      .000
    .680    -.22782E-01     .34375E-02     .64270E+02    -.13075E+02    -.10022E+00         .000      .000
    .690    -.23505E-01     .28750E-02     .71829E+02    -.13618E+02    -.53914E-01         .000      .000
    .700    -.24067E-01     .48423E-03     .61690E+02    -.10651E+02    -.69486E-01         .000      .000
    .710    -.24960E-01    -.34956E-02     .32301E+02    -.39737E+01    -.10442E+00         .000      .000
    .720    -.25988E-01    -.82846E-02    -.13150E+02     .52569E+01    -.89840E-01         .000      .000
    .730    -.26548E-01    -.12598E-01    -.59136E+02     .13394E+02    -.14358E-01         .000      .000
    .740    -.26145E-01    -.15214E-01    -.85018E+02     .16767E+02     .99220E-01         .000      .000
    .750    -.24496E-01    -.15667E-01    -.83592E+02     .15080E+02     .23352E+00         .000      .000
    .760    -.21355E-01    -.14335E-01    -.64574E+02     .10805E+02     .40472E+00         .000      .000
    .770    -.16282E-01    -.11945E-01    -.41152E+02     .62796E+01     .61239E+00         .000      .000
    .780    -.92110E-02    -.91737E-02    -.20961E+02     .26749E+01     .78913E+00         .000      .000
    .790    -.84137E-03    -.65392E-02    -.90305E+01     .10103E+01     .86386E+00         .000      .000
    .800     .77416E-02    -.43080E-02    -.11643E+02     .24670E+01     .84159E+00         .000      .000
    .810     .15932E-01    -.22298E-02    -.29566E+02     .65272E+01     .80122E+00         .000      .000
    .820     .23919E-01     .52358E-03    -.49058E+02     .97281E+01     .80526E+00         .000      .000
    .830     .32144E-01     .48138E-02    -.48224E+02     .79554E+01     .84025E+00         .000      .000
    .840     .40508E-01     .10724E-01    -.16517E+02     .35292E+00     .81097E+00         .000      .000
    .850     .47856E-01     .17279E-01     .34436E+02    -.96902E+01     .63124E+00         .000      .000
    .860     .52621E-01     .22997E-01     .80293E+02    -.17349E+02     .29975E+00         .000      .000
    .870     .53551E-01     .26777E-01     .10312E+03    -.20061E+02    -.12134E+00         .000      .000
    .880     .50202E-01     .28394E-01     .10335E+03    -.18983E+02    -.54114E+00         .000      .000
    .890     .43009E-01     .28284E-01     .94860E+02    -.17178E+02    -.87802E+00         .000      .000
    .900     .33090E-01     .26953E-01     .91629E+02    -.17020E+02    -.10811E+01         .000      .000
    .910     .21949E-01     .24519E-01     .99008E+02    -.18967E+02    -.11153E+01         .000      .000
    .920     .11350E-01     .20590E-01     .11199E+03    -.21524E+02    -.97909E+00         .000      .000
    .930     .26282E-02     .14466E-01     .11754E+03    -.21842E+02    -.76376E+00         .000      .000
    .940    -.42872E-02     .55443E-02     .99199E+02    -.16640E+02    -.65585E+00         .000      .000
    .950    -.11166E-01    -.61467E-02     .42210E+02    -.33546E+01    -.75032E+00         .000      .000
    .960    -.19480E-01    -.19399E-01    -.57299E+02     .17709E+02    -.90140E+00         .000      .000
    .970    -.28333E-01    -.31546E-01    -.17764E+03     .40515E+02    -.79771E+00         .000      .000
    .980    -.33968E-01    -.39134E-01    -.26753E+03     .54055E+02    -.25882E+00         .000      .000
    .990    -.32490E-01    -.39774E-01    -.27509E+03     .49773E+02     .58427E+00         .000      .000
   1.000    -.22470E-01    -.33937E-01    -.19382E+03     .30059E+02     .13742E+01         .000      .000
   1.010    -.64201E-02    -.24907E-01    -.78640E+02     .82998E+01     .17458E+01         .000      .000
   1.020     .10824E-01    -.16524E-01    -.66387E+01    -.12632E+01     .16351E+01         .000      .000
   1.030     .25524E-01    -.10466E-01    -.18177E+02     .56398E+01     .12965E+01         .000      .000
   1.040     .36975E-01    -.52033E-02    -.86229E+02     .20046E+02     .10193E+01         .000      .000
   1.050     .46345E-01     .25873E-02    -.13606E+03     .26457E+02     .86768E+00         .000      .000
   1.060     .54431E-01     .15167E-01    -.10323E+03     .14896E+02     .74555E+00         .000      .000
   1.070     .61031E-01     .31726E-01     .18410E+02    -.12108E+02     .55869E+00         .000      .000
   1.080     .65062E-01     .48685E-01     .18134E+03    -.43537E+02     .21329E+00         .000      .000
   1.090     .64538E-01     .61573E-01     .32547E+03    -.68253E+02    -.35627E+00         .000      .000
   1.100     .57280E-01     .66790E-01     .40540E+03    -.78689E+02    -.11206E+01         .000      .000
   1.110     .41998E-01     .62702E-01     .39708E+03    -.71713E+02    -.19232E+01         .000      .000
   1.120     .19487E-01     .50189E-01     .30724E+03    -.50704E+02    -.25271E+01         .000      .000
   1.130    -.73632E-02     .32265E-01     .17737E+03    -.25239E+02    -.27811E+01         .000      .000
   1.140    -.35150E-01     .12556E-01     .62466E+02    -.54947E+01    -.27426E+01         .000      .000
   1.150    -.61833E-01    -.65196E-02    -.61352E+01     .48167E+01    -.25893E+01         .000      .000
   1.160    -.86906E-01    -.24453E-01    -.40425E+02     .10274E+02    -.24247E+01         .000      .000
   1.170    -.11023E+00    -.41738E-01    -.77129E+02     .18172E+02    -.22283E+01         .000      .000
   1.180    -.13106E+00    -.58333E-01    -.13927E+03     .31273E+02    -.19075E+01         .000      .000
   1.190    -.14767E+00    -.73008E-01    -.21869E+03     .46449E+02    -.13750E+01         .000      .000
   1.200    -.15768E+00    -.83880E-01    -.29046E+03     .58642E+02    -.58197E+00         .000      .000
   1.210    -.15852E+00    -.89327E-01    -.33320E+03     .64335E+02     .44491E+00         .000      .000
   1.220    -.14843E+00    -.88574E-01    -.33721E+03     .62427E+02     .15765E+01         .000      .000
   1.230    -.12710E+00    -.81888E-01    -.30565E+03     .54330E+02     .26765E+01         .000      .000
   1.240    -.95458E-01    -.70401E-01    -.25493E+03     .43856E+02     .36120E+01         .000      .000
   1.250    -.55864E-01    -.55504E-01    -.20638E+03     .34974E+02     .42479E+01         .000      .000
   1.260    -.11642E-01    -.38140E-01    -.17194E+03     .29189E+02     .45416E+01         .000      .000
   1.270     .34247E-01    -.18504E-01    -.14849E+03     .25020E+02     .46182E+01         .000      .000
   1.280     .80605E-01     .37834E-02    -.11852E+03     .18298E+02     .46581E+01         .000      .000
   1.290     .12743E+00     .29026E-01    -.54852E+02     .36525E+01     .47017E+01         .000      .000
   1.300     .17425E+00     .56393E-01     .60193E+02    -.20927E+02     .46291E+01         .000      .000
   1.310     .21892E+00     .83224E-01     .20951E+03    -.49826E+02     .42322E+01         .000      .000
   1.320     .25718E+00     .10571E+00     .34269E+03    -.72279E+02     .33244E+01         .000      .000
   1.330     .28415E+00     .12073E+00     .41007E+03    -.80017E+02     .20431E+01         .000      .000
   1.340     .29814E+00     .12739E+00     .39641E+03    -.72793E+02     .78965E+00         .000      .000
   1.350     .30079E+00     .12729E+00     .33355E+03    -.59248E+02    -.21455E+00         .000      .000
   1.360     .29455E+00     .12307E+00     .28117E+03    -.50948E+02    -.10112E+01         .000      .000
   1.370     .28078E+00     .11615E+00     .27271E+03    -.51316E+02    -.17430E+01         .000      .000
   1.380     .25961E+00     .10586E+00     .28477E+03    -.53136E+02    -.24943E+01         .000      .000
   1.390     .23098E+00     .90850E-01     .27092E+03    -.47843E+02    -.32193E+01         .000      .000
   1.400     .19583E+00     .70863E-01     .20881E+03    -.33209E+02    -.37635E+01         .000      .000
   1.410     .15678E+00     .47221E-01     .10853E+03    -.12597E+02    -.39869E+01         .000      .000
   1.420     .11714E+00     .22206E-01    -.52421E+01     .90088E+01    -.38987E+01         .000      .000
   1.430     .79573E-01    -.18009E-02    -.10983E+03     .27780E+02    -.35821E+01         .000      .000
   1.440     .46112E-01    -.22910E-01    -.19419E+03     .42372E+02    -.30812E+01         .000      .000
   1.450     .18479E-01    -.39811E-01    -.25724E+03     .52855E+02    -.24213E+01         .000      .000
   1.460    -.18766E-02    -.51589E-01    -.29722E+03     .58692E+02    -.16308E+01         .000      .000
   1.470    -.13865E-01    -.57750E-01    -.31055E+03     .59340E+02    -.75885E+00         .000      .000
   1.480    -.17111E-01    -.58381E-01    -.29978E+03     .55798E+02     .96492E-01         .000      .000
   1.490    -.12413E-01    -.54024E-01    -.27396E+03     .50018E+02     .80946E+00         .000      .000
   1.500    -.15556E-02    -.45341E-01    -.24149E+03     .43406E+02     .13328E+01         .000      .000
   1.510     .13825E-01    -.32845E-01    -.20477E+03     .35952E+02     .17305E+01         .000      .000
   1.520     .32769E-01    -.16862E-01    -.15695E+03     .25783E+02     .20419E+01         .000      .000
   1.530     .54176E-01     .21360E-02    -.84605E+02     .10325E+02     .22069E+01         .000      .000
   1.540     .76001E-01     .22914E-01     .16809E+02    -.10231E+02     .21014E+01         .000      .000
   1.550     .94984E-01     .43278E-01     .13003E+03    -.31403E+02     .16323E+01         .000      .000
   1.560     .10755E+00     .60751E-01     .22626E+03    -.47723E+02     .83706E+00         .000      .000
   1.570     .11118E+00     .73562E-01     .28791E+03    -.57028E+02    -.12097E+00         .000      .000
   1.580     .10521E+00     .81053E-01     .31962E+03    -.61438E+02    -.10571E+01         .000      .000
   1.590     .90334E-01     .83242E-01     .33915E+03    -.64578E+02    -.19063E+01         .000      .000
   1.600     .67275E-01     .80026E-01     .35778E+03    -.67722E+02    -.26983E+01         .000      .000
   1.610     .36766E-01     .70791E-01     .36698E+03    -.68126E+02    -.33695E+01         .000      .000
   1.620     .68899E-03     .54853E-01     .34480E+03    -.61492E+02    -.37988E+01         .000      .000
   1.630    -.38370E-01     .32323E-01     .27843E+03    -.46423E+02    -.39767E+01         .000      .000
   1.640    -.78105E-01     .44017E-02     .17347E+03    -.24674E+02    -.39335E+01         .000      .000
   1.650    -.11631E+00    -.26979E-01     .38028E+02     .25128E+01    -.36708E+01         .000      .000
   1.660    -.15071E+00    -.59284E-01    -.12291E+03     .33975E+02    -.31650E+01         .000      .000
   1.670    -.17872E+00    -.89234E-01    -.29153E+03     .65274E+02    -.23941E+01         .000      .000
   1.680    -.19789E+00    -.11326E+00    -.43500E+03     .89798E+02    -.14163E+01         .000      .000
   1.690    -.20669E+00    -.12851E+00    -.52498E+03     .10303E+03    -.33523E+00         .000      .000
   1.700    -.20449E+00    -.13360E+00    -.55347E+03     .10470E+03     .77802E+00         .000      .000
   1.710    -.19110E+00    -.12855E+00    -.52945E+03     .97091E+02     .19014E+01         .000      .000
   1.720    -.16643E+00    -.11429E+00    -.46429E+03     .82182E+02     .30346E+01         .000      .000
   1.730    -.13071E+00    -.92368E-01    -.36579E+03     .61402E+02     .40781E+01         .000      .000
   1.740    -.85726E-01    -.64908E-01    -.24434E+03     .37181E+02     .48662E+01         .000      .000
   1.750    -.34374E-01    -.34454E-01    -.11909E+03     .13643E+02     .53606E+01         .000      .000
   1.760     .20594E-01    -.33871E-02    -.11290E+02    -.55590E+01     .55882E+01         .000      .000
   1.770     .76382E-01     .26726E-01     .74232E+02    -.20769E+02     .55128E+01         .000      .000
   1.780     .12982E+00     .55029E-01     .15095E+03    -.35022E+02     .51266E+01         .000      .000
   1.790     .17797E+00     .80656E-01     .22756E+03    -.49167E+02     .44589E+01         .000      .000
   1.800     .21805E+00     .10247E+00     .29881E+03    -.61753E+02     .35080E+01         .000      .000
   1.810     .24740E+00     .11937E+00     .35879E+03    -.71913E+02     .23382E+01         .000      .000
   1.820     .26451E+00     .13040E+00     .40416E+03    -.79043E+02     .10791E+01         .000      .000
   1.830     .26900E+00     .13482E+00     .43015E+03    -.82255E+02    -.17351E+00         .000      .000
