


 TIME HISTORY FOR STORY NO.  6



    TIME   DISPLACEMENT    STORY DRIFT    STORY SHEAR   ACCELERATION     VELOCITY          DAMAGE    DAMAGE
                                                                                          BEAM-SLAB  COL-WALL

    .000     .00000E+00     .00000E+00     .00000E+00     .00000E+00     .00000E+00         .000      .000
    .010    -.36014E-05    -.11614E-08    -.63099E-05     .30411E-03    -.68682E-03         .000      .000
    .020    -.13935E-04    -.20026E-07    -.30767E-02     .16757E-02    -.14524E-02         .000      .000
    .030    -.32728E-04     .19221E-06    -.17013E-01     .50594E-02    -.22425E-02         .000      .000
    .040    -.58821E-04     .16894E-05    -.18583E-01     .36962E-02    -.30466E-02         .000      .000
    .050    -.93641E-04     .52128E-05     .36371E-01    -.10251E-01    -.38462E-02         .000      .000
    .060    -.13553E-03     .93306E-05     .14852E+00    -.33306E-01    -.45766E-02         .000      .000
    .070    -.18531E-03     .10782E-04     .26915E+00    -.55158E-01    -.53455E-02         .000      .000
    .080    -.24295E-03     .63648E-05     .35937E+00    -.69563E-01    -.62677E-02         .000      .000
    .090    -.31155E-03    -.61824E-05     .39421E+00    -.72082E-01    -.74549E-02         .000      .000
    .100    -.39396E-03    -.27666E-04     .35524E+00    -.59626E-01    -.92145E-02         .000      .000
    .110    -.49717E-03    -.56796E-04     .24480E+00    -.34528E-01    -.11375E-01         .000      .000
    .120    -.62024E-03    -.90189E-04     .99063E-01    -.56183E-02    -.13175E-01         .000      .000
    .130    -.75787E-03    -.12336E-03    -.15869E-01     .12334E-01    -.14142E-01         .000      .000
    .140    -.90167E-03    -.15297E-03    -.11855E-01     .33484E-02    -.14690E-01         .000      .000
    .150    -.10506E-02    -.18028E-03     .13187E+00    -.29954E-01    -.14924E-01         .000      .000
    .160    -.11983E-02    -.21170E-03     .30448E+00    -.60057E-01    -.14605E-01         .000      .000
    .170    -.13423E-02    -.25391E-03     .35665E+00    -.61396E-01    -.14149E-01         .000      .000
    .180    -.14806E-02    -.30904E-03     .24518E+00    -.31945E-01    -.13492E-01         .000      .000
    .190    -.16099E-02    -.37470E-03    -.12644E-01     .23958E-01    -.12175E-01         .000      .000
    .200    -.17181E-02    -.44481E-03    -.38244E+00     .97080E-01    -.90404E-02         .000      .000
    .210    -.17823E-02    -.51019E-03    -.76451E+00     .16397E+00    -.33936E-02         .000      .000
    .220    -.17814E-02    -.56223E-03    -.10211E+01     .20002E+00     .36106E-02         .000      .000
    .230    -.17125E-02    -.59807E-03    -.11156E+01     .20899E+00     .99088E-02         .000      .000
    .240    -.15941E-02    -.62130E-03    -.12117E+01     .23309E+00     .12970E-01         .000      .000
    .250    -.14592E-02    -.63396E-03    -.15366E+01     .31064E+00     .14213E-01         .000      .000
    .260    -.13102E-02    -.62686E-03    -.21047E+01     .42586E+00     .15317E-01         .000      .000
    .270    -.11576E-02    -.57898E-03    -.25631E+01     .49233E+00     .14952E-01         .000      .000
    .280    -.10143E-02    -.47229E-03    -.24169E+01     .42425E+00     .13643E-01         .000      .000
    .290    -.88904E-03    -.30950E-03    -.15811E+01     .23463E+00     .11064E-01         .000      .000
    .300    -.79634E-03    -.11199E-03    -.31822E+00    -.20519E-01     .75022E-02         .000      .000
    .310    -.73762E-03     .90858E-04     .11394E+01    -.30152E+00     .43654E-02         .000      .000
    .320    -.71424E-03     .26616E-03     .25648E+01    -.56157E+00    -.31357E-03         .000      .000
    .330    -.76191E-03     .38148E-03     .36764E+01    -.74260E+00    -.10370E-01         .000      .000
    .340    -.93688E-03     .41155E-03     .41350E+01    -.77759E+00    -.24970E-01         .000      .000
    .350    -.12647E-02     .35015E-03     .36818E+01    -.63495E+00    -.40600E-01         .000      .000
    .360    -.17554E-02     .22092E-03     .26113E+01    -.41109E+00    -.58250E-01         .000      .000
    .370    -.24251E-02     .63923E-04     .17710E+01    -.27878E+00    -.74576E-01         .000      .000
    .380    -.32184E-02    -.97156E-04     .16730E+01    -.29877E+00    -.82333E-01         .000      .000
    .390    -.40385E-02    -.26615E-03     .22225E+01    -.43718E+00    -.80106E-01         .000      .000
    .400    -.47954E-02    -.46697E-03     .32735E+01    -.66313E+00    -.70348E-01         .000      .000
    .410    -.54355E-02    -.74587E-03     .42845E+01    -.82964E+00    -.57523E-01         .000      .000
    .420    -.59535E-02    -.11559E-02     .39907E+01    -.67000E+00    -.46889E-01         .000      .000
    .430    -.63904E-02    -.17094E-02     .13482E+01    -.31436E-01    -.41387E-01         .000      .000
    .440    -.68053E-02    -.23421E-02    -.34776E+01     .97964E+00    -.43190E-01         .000      .000
    .450    -.72656E-02    -.29225E-02    -.91061E+01     .20452E+01    -.48541E-01         .000      .000
    .460    -.77759E-02    -.32956E-02    -.13568E+02     .27772E+01    -.53933E-01         .000      .000
    .470    -.83685E-02    -.33406E-02    -.14996E+02     .28443E+01    -.66681E-01         .000      .000
    .480    -.91327E-02    -.30244E-02    -.12338E+02     .21205E+01    -.86374E-01         .000      .000
    .490    -.10093E-01    -.24290E-02    -.62685E+01     .83126E+00    -.10518E+00         .000      .000
    .500    -.11232E-01    -.17156E-02     .14259E+01    -.67223E+00    -.12246E+00         .000      .000
    .510    -.12556E-01    -.10684E-02     .93351E+01    -.21477E+01    -.14357E+00         .000      .000
    .520    -.14086E-01    -.67456E-03     .16002E+02    -.32870E+01    -.15960E+00         .000      .000
    .530    -.15658E-01    -.69148E-03     .19404E+02    -.37134E+01    -.14875E+00         .000      .000
    .540    -.16934E-01    -.11809E-02     .18683E+02    -.33925E+01    -.99854E-01         .000      .000
    .550    -.17529E-01    -.21014E-02     .15158E+02    -.26512E+01    -.13164E-01         .000      .000
    .560    -.17109E-01    -.33874E-02     .98027E+01    -.15637E+01     .10000E+00         .000      .000
    .570    -.15480E-01    -.49820E-02     .13323E+01     .22243E+00     .22788E+00         .000      .000
    .580    -.12543E-01    -.67633E-02    -.11970E+02     .29817E+01     .35854E+00         .000      .000
    .590    -.83268E-02    -.84635E-02    -.29696E+02     .64855E+01     .48385E+00         .000      .000
    .600    -.28420E-02    -.96757E-02    -.48855E+02     .10046E+02     .61596E+00         .000      .000
    .610     .40330E-02    -.99393E-02    -.65087E+02     .12784E+02     .75992E+00         .000      .000
    .620     .12365E-01    -.88573E-02    -.73559E+02     .13788E+02     .90608E+00         .000      .000
    .630     .22085E-01    -.62379E-02    -.70891E+02     .12594E+02     .10315E+01         .000      .000
    .640     .32835E-01    -.21868E-02    -.57802E+02     .95984E+01     .11096E+01         .000      .000
    .650     .44065E-01     .29517E-02    -.38472E+02     .57158E+01     .11244E+01         .000      .000
    .660     .55053E-01     .87521E-02    -.17345E+02     .17233E+01     .10583E+01         .000      .000
    .670     .64908E-01     .14837E-01     .34309E+01    -.21119E+01     .89557E+00         .000      .000
    .680     .72669E-01     .20902E-01     .23817E+02    -.58643E+01     .64437E+00         .000      .000
    .690     .77612E-01     .26693E-01     .44687E+02    -.97585E+01     .33832E+00         .000      .000
    .700     .79342E-01     .31958E-01     .67963E+02    -.14242E+02     .40157E-02         .000      .000
    .710     .77650E-01     .36358E-01     .95916E+02    -.19687E+02    -.34320E+00         .000      .000
    .720     .72530E-01     .39344E-01     .12724E+03    -.25544E+02    -.67450E+00         .000      .000
    .730     .64322E-01     .40169E-01     .15477E+03    -.30198E+02    -.95670E+00         .000      .000
    .740     .53547E-01     .38127E-01     .16941E+03    -.31972E+02    -.11931E+01         .000      .000
    .750     .40547E-01     .32804E-01     .16470E+03    -.29805E+02    -.14031E+01         .000      .000
    .760     .25643E-01     .24217E-01     .13667E+03    -.23055E+02    -.15659E+01         .000      .000
    .770     .95224E-02     .12935E-01     .84659E+02    -.11932E+02    -.16410E+01         .000      .000
    .780    -.68047E-02     .14987E-03     .16537E+02     .14895E+01    -.16053E+01         .000      .000
    .790    -.22169E-01    -.12576E-01    -.51928E+02     .14000E+02    -.14466E+01         .000      .000
    .800    -.35298E-01    -.23819E-01    -.10700E+03     .23367E+02    -.11569E+01         .000      .000
    .810    -.44942E-01    -.32633E-01    -.14340E+03     .29052E+02    -.75769E+00         .000      .000
    .820    -.50250E-01    -.38580E-01    -.16207E+03     .31501E+02    -.29781E+00         .000      .000
    .830    -.50822E-01    -.41622E-01    -.16762E+03     .31800E+02     .18529E+00         .000      .000
    .840    -.46577E-01    -.41947E-01    -.16723E+03     .31382E+02     .65909E+00         .000      .000
    .850    -.37761E-01    -.39701E-01    -.16594E+03     .30931E+02     .10967E+01         .000      .000
    .860    -.24883E-01    -.34848E-01    -.16239E+03     .29849E+02     .14623E+01         .000      .000
    .870    -.88800E-02    -.27266E-01    -.15075E+03     .26924E+02     .17183E+01         .000      .000
    .880     .90728E-02    -.16966E-01    -.12527E+03     .21168E+02     .18509E+01         .000      .000
    .890     .27634E-01    -.42635E-02    -.82957E+02     .12190E+02     .18323E+01         .000      .000
    .900     .45147E-01     .10138E-01    -.23674E+02     .13874E+00     .16424E+01         .000      .000
    .910     .59941E-01     .25121E-01     .48483E+02    -.13911E+02     .12907E+01         .000      .000
    .920     .70447E-01     .39254E-01     .12433E+03    -.28015E+02     .78582E+00         .000      .000
    .930     .75267E-01     .51049E-01     .19368E+03    -.40324E+02     .16477E+00         .000      .000
    .940     .73638E-01     .59203E-01     .24846E+03    -.49471E+02    -.48735E+00         .000      .000
    .950     .65786E-01     .62745E-01     .28320E+03    -.54642E+02    -.10598E+01         .000      .000
    .960     .53000E-01     .61116E-01     .29631E+03    -.55792E+02    -.14651E+01         .000      .000
    .970     .36911E-01     .54107E-01     .28831E+03    -.52981E+02    -.17425E+01         .000      .000
    .980     .18206E-01     .41739E-01     .25627E+03    -.45263E+02    -.20024E+01         .000      .000
    .990    -.31030E-02     .24371E-01     .19083E+03    -.30581E+02    -.22511E+01         .000      .000
   1.000    -.26533E-01     .31557E-02     .84766E+02    -.82102E+01    -.24153E+01         .000      .000
   1.010    -.50742E-01    -.19539E-01    -.48990E+02     .17901E+02    -.23818E+01         .000      .000
   1.020    -.73140E-01    -.40557E-01    -.17600E+03     .40471E+02    -.20424E+01         .000      .000
   1.030    -.90653E-01    -.57122E-01    -.26301E+03     .53920E+02    -.14234E+01         .000      .000
   1.040    -.10111E+00    -.67805E-01    -.29704E+03     .57197E+02    -.65428E+00         .000      .000
   1.050    -.10370E+00    -.72710E-01    -.28949E+03     .53770E+02     .12761E+00         .000      .000
   1.060    -.98779E-01    -.72882E-01    -.26714E+03     .49132E+02     .84452E+00         .000      .000
   1.070    -.87055E-01    -.69300E-01    -.25233E+03     .46754E+02     .14891E+01         .000      .000
   1.080    -.69196E-01    -.62211E-01    -.24812E+03     .46030E+02     .20733E+01         .000      .000
   1.090    -.45704E-01    -.51227E-01    -.24011E+03     .43559E+02     .26214E+01         .000      .000
   1.100    -.16861E-01    -.35962E-01    -.20976E+03     .35960E+02     .31406E+01         .000      .000
   1.110     .16811E-01    -.16664E-01    -.14605E+03     .21763E+02     .35708E+01         .000      .000
   1.120     .53983E-01     .54469E-02    -.50860E+02     .21690E+01     .38307E+01         .000      .000
   1.130     .92678E-01     .28250E-01     .58802E+02    -.18771E+02     .38689E+01         .000      .000
   1.140     .13060E+00     .49284E-01     .15654E+03    -.35882E+02     .36810E+01         .000      .000
   1.150     .16554E+00     .66572E-01     .22124E+03    -.45821E+02     .32678E+01         .000      .000
   1.160     .19519E+00     .79162E-01     .24700E+03    -.48354E+02     .26235E+01         .000      .000
   1.170     .21739E+00     .87129E-01     .24101E+03    -.45388E+02     .17921E+01         .000      .000
   1.180     .23052E+00     .91257E-01     .21681E+03    -.39780E+02     .80802E+00         .000      .000
   1.190     .23330E+00     .92660E-01     .19220E+03    -.35126E+02    -.25291E+00         .000      .000
   1.200     .22555E+00     .92254E-01     .18419E+03    -.34403E+02    -.12882E+01         .000      .000
   1.210     .20757E+00     .90270E-01     .20026E+03    -.38359E+02    -.23145E+01         .000      .000
   1.220     .17912E+00     .86082E-01     .23514E+03    -.45209E+02    -.33834E+01         .000      .000
   1.230     .13989E+00     .78398E-01     .26924E+03    -.50499E+02    -.44521E+01         .000      .000
   1.240     .90366E-01     .65973E-01     .27687E+03    -.49600E+02    -.54322E+01         .000      .000
   1.250     .31942E-01     .48481E-01     .24758E+03    -.41867E+02    -.62053E+01         .000      .000
   1.260    -.32650E-01     .26672E-01     .19246E+03    -.30309E+02    -.66530E+01         .000      .000
   1.270    -.99911E-01     .17753E-02     .12812E+03    -.17947E+02    -.67396E+01         .000      .000
   1.280    -.16639E+00    -.25081E-01     .63915E+02    -.59813E+01    -.65097E+01         .000      .000
   1.290    -.22934E+00    -.53084E-01    -.14091E+01     .64413E+01    -.60497E+01         .000      .000
   1.300    -.28679E+00    -.81566E-01    -.77185E+02     .21384E+02    -.54120E+01         .000      .000
   1.310    -.33698E+00    -.10955E+00    -.17185E+03     .40082E+02    -.45949E+01         .000      .000
   1.320    -.37803E+00    -.13539E+00    -.28218E+03     .61082E+02    -.35811E+01         .000      .000
   1.330    -.40786E+00    -.15683E+00    -.39067E+03     .80415E+02    -.23473E+01         .000      .000
   1.340    -.42437E+00    -.17161E+00    -.47448E+03     .93803E+02    -.93313E+00         .000      .000
   1.350    -.42619E+00    -.17809E+00    -.51674E+03     .98623E+02     .58239E+00         .000      .000
   1.360    -.41262E+00    -.17571E+00    -.51299E+03     .94830E+02     .21283E+01         .000      .000
   1.370    -.38390E+00    -.16497E+00    -.47135E+03     .84562E+02     .35903E+01         .000      .000
   1.380    -.34151E+00    -.14708E+00    -.40535E+03     .70539E+02     .48448E+01         .000      .000
   1.390    -.28827E+00    -.12351E+00    -.32862E+03     .55383E+02     .57208E+01         .000      .000
   1.400    -.22894E+00    -.95710E-01    -.25226E+03     .41010E+02     .60424E+01         .000      .000
   1.410    -.16912E+00    -.64722E-01    -.18002E+03     .27582E+02     .58560E+01         .000      .000
   1.420    -.11274E+00    -.31112E-01    -.10417E+03     .12755E+02     .53938E+01         .000      .000
   1.430    -.61636E-01     .47585E-02    -.16500E+01    -.87423E+01     .48118E+01         .000      .000
   1.440    -.16988E-01     .41766E-01     .15469E+03    -.41449E+02     .40846E+01         .000      .000
   1.450     .19276E-01     .76822E-01     .36115E+03    -.82014E+02     .31266E+01         .000      .000
   1.460     .44660E-01     .10496E+00     .56597E+03    -.11838E+03     .19083E+01         .000      .000
   1.470     .56988E-01     .12122E+00     .70124E+03    -.13819E+03     .55719E+00         .000      .000
   1.480     .56096E-01     .12277E+00     .72817E+03    -.13651E+03    -.70622E+00         .000      .000
   1.490     .43688E-01     .10973E+00     .65108E+03    -.11638E+03    -.17246E+01         .000      .000
   1.500     .22678E-01     .84558E-01     .50130E+03    -.84565E+02    -.24235E+01         .000      .000
   1.510    -.36747E-02     .50907E-01     .31250E+03    -.47123E+02    -.27924E+01         .000      .000
   1.520    -.32049E-01     .12731E-01     .10930E+03    -.82452E+01    -.28268E+01         .000      .000
   1.530    -.59221E-01    -.26081E-01    -.89727E+02     .28757E+02    -.25654E+01         .000      .000
   1.540    -.82595E-01    -.61967E-01    -.26899E+03     .61151E+02    -.20764E+01         .000      .000
   1.550    -.99984E-01    -.91933E-01    -.41858E+03     .87474E+02    -.13587E+01         .000      .000
   1.560    -.10913E+00    -.11359E+00    -.53451E+03     .10712E+03    -.45044E+00         .000      .000
   1.570    -.10887E+00    -.12505E+00    -.60956E+03     .11837E+03     .49378E+00         .000      .000
   1.580    -.99528E-01    -.12503E+00    -.63174E+03     .11905E+03     .13563E+01         .000      .000
   1.590    -.82227E-01    -.11328E+00    -.59661E+03     .10897E+03     .20743E+01         .000      .000
   1.600    -.58732E-01    -.90579E-01    -.50682E+03     .88705E+02     .25856E+01         .000      .000
   1.610    -.31268E-01    -.58582E-01    -.36218E+03     .58066E+02     .28713E+01         .000      .000
   1.620    -.19930E-02    -.20043E-01    -.16648E+03     .18384E+02     .29522E+01         .000      .000
   1.630     .26949E-01     .21107E-01     .61820E+02    -.25984E+02     .27873E+01         .000      .000
   1.640     .52754E-01     .60177E-01     .29278E+03    -.68884E+02     .23255E+01         .000      .000
   1.650     .72638E-01     .92428E-01     .49082E+03    -.10338E+03     .16201E+01         .000      .000
   1.660     .84604E-01     .11396E+00     .62190E+03    -.12350E+03     .75083E+00         .000      .000
   1.670     .87422E-01     .12258E+00     .66897E+03    -.12734E+03    -.18827E+00         .000      .000
   1.680     .80887E-01     .11806E+00     .63693E+03    -.11684E+03    -.11139E+01         .000      .000
   1.690     .65398E-01     .10173E+00     .54109E+03    -.95190E+02    -.19647E+01         .000      .000
   1.700     .42073E-01     .75993E-01     .39935E+03    -.65921E+02    -.26728E+01         .000      .000
   1.710     .12542E-01     .43965E-01     .23113E+03    -.32828E+02    -.32024E+01         .000      .000
   1.720    -.21221E-01     .90414E-02     .56728E+02     .24211E+00    -.35072E+01         .000      .000
   1.730    -.56743E-01    -.25499E-01    -.10650E+03     .30259E+02    -.35555E+01         .000      .000
   1.740    -.91531E-01    -.56798E-01    -.24640E+03     .55171E+02    -.33649E+01         .000      .000
   1.750    -.12319E+00    -.82563E-01    -.35442E+03     .73539E+02    -.29207E+01         .000      .000
   1.760    -.14907E+00    -.10117E+00    -.42590E+03     .84696E+02    -.22142E+01         .000      .000
   1.770    -.16682E+00    -.11168E+00    -.45844E+03     .88235E+02    -.13097E+01         .000      .000
   1.780    -.17496E+00    -.11386E+00    -.45050E+03     .84087E+02    -.31258E+00         .000      .000
   1.790    -.17313E+00    -.10830E+00    -.40737E+03     .73827E+02     .66795E+00         .000      .000
   1.800    -.16194E+00    -.96215E-01    -.34208E+03     .60192E+02     .15465E+01         .000      .000
   1.810    -.14263E+00    -.79037E-01    -.26613E+03     .45038E+02     .22952E+01         .000      .000
   1.820    -.11635E+00    -.58109E-01    -.18335E+03     .28664E+02     .29487E+01         .000      .000
   1.830    -.84028E-01    -.34753E-01    -.92622E+02     .10732E+02     .34909E+01         .000      .000
