


 TIME HISTORY FOR STORY NO.  1



    TIME   DISPLACEMENT    STORY DRIFT    STORY SHEAR   ACCELERATION     VELOCITY          DAMAGE    DAMAGE
                                                                                          BEAM-SLAB  COL-WALL

    .000     .00000E+00     .00000E+00     .00000E+00     .00000E+00     .00000E+00         .000      .000
    .010    -.29055E-05    -.29055E-05    -.16511E+00     .42869E-01    -.47179E-03         .000      .000
    .020    -.85273E-05    -.85273E-05    -.41209E+00     .69270E-01    -.68441E-03         .000      .000
    .030    -.15955E-04    -.15955E-04    -.67337E+00     .81514E-01    -.72241E-03         .000      .000
    .040    -.23120E-04    -.23120E-04    -.85241E+00     .82855E-01    -.77794E-03         .000      .000
    .050    -.30956E-04    -.30956E-04    -.10365E+01     .82562E-01    -.69446E-03         .000      .000
    .060    -.36722E-04    -.36722E-04    -.10764E+01     .60168E-01    -.50404E-03         .000      .000
    .070    -.41009E-04    -.41009E-04    -.10550E+01     .39139E-01    -.31660E-03         .000      .000
    .080    -.43754E-04    -.43754E-04    -.98678E+00     .25675E-01    -.31612E-03         .000      .000
    .090    -.47777E-04    -.47777E-04    -.10406E+01     .39339E-01    -.46305E-03         .000      .000
    .100    -.54334E-04    -.54334E-04    -.12539E+01     .88517E-01    -.97517E-03         .000      .000
    .110    -.66743E-04    -.66743E-04    -.17515E+01     .16024E+00    -.13749E-02         .000      .000
    .120    -.80061E-04    -.80061E-04    -.21623E+01     .17895E+00    -.12425E-02         .000      .000
    .130    -.89825E-04    -.89825E-04    -.22816E+01     .14158E+00    -.59528E-03         .000      .000
    .140    -.92799E-04    -.92799E-04    -.20343E+01     .86907E-01    -.14741E-03         .000      .000
    .150    -.92284E-04    -.92284E-04    -.16768E+01     .31805E-01     .39515E-03         .000      .000
    .160    -.84786E-04    -.84786E-04    -.10019E+01    -.64031E-01     .10073E-02         .000      .000
    .170    -.73829E-04    -.73829E-04    -.29700E+00    -.12348E+00     .11224E-02         .000      .000
    .180    -.63390E-04    -.63390E-04     .21487E+00    -.13808E+00     .92402E-03         .000      .000
    .190    -.54537E-04    -.54537E-04     .52463E+00    -.13652E+00     .94367E-03         .000      .000
    .200    -.41262E-04    -.41262E-04     .10035E+01    -.19476E+00     .19064E-02         .000      .000
    .210    -.13953E-04    -.13953E-04     .21022E+01    -.33809E+00     .36185E-02         .000      .000
    .220     .28715E-04     .28715E-04     .37027E+01    -.46365E+00     .46782E-02         .000      .000
    .230     .74366E-04     .74366E-04     .50622E+01    -.45854E+00     .41866E-02         .000      .000
    .240     .10430E-03     .10430E-03     .53766E+01    -.24851E+00     .13091E-02         .000      .000
    .250     .10261E-03     .10261E-03     .42671E+01     .60823E-02    -.11462E-02         .000      .000
    .260     .82953E-04     .82953E-04     .28854E+01     .14573E+00    -.30113E-02         .000      .000
    .270     .40275E-04     .40275E-04     .80046E+00     .37414E+00    -.55117E-02         .000      .000
    .280    -.22775E-04    -.22775E-04    -.17441E+01     .55181E+00    -.67536E-02         .000      .000
    .290    -.91363E-04    -.91363E-04    -.38854E+01     .58702E+00    -.69341E-02         .000      .000
    .300    -.15780E-03    -.15780E-03    -.53986E+01     .48395E+00    -.60744E-02         .000      .000
    .310    -.20910E-03    -.20910E-03    -.58407E+01     .20313E+00    -.40640E-02         .000      .000
    .320    -.24470E-03    -.24470E-03    -.57415E+01     .14925E-01    -.35643E-02         .000      .000
    .330    -.29091E-03    -.29091E-03    -.69125E+01     .22928E+00    -.61620E-02         .000      .000
    .340    -.36663E-03    -.36663E-03    -.99778E+01     .65284E+00    -.85556E-02         .000      .000
    .350    -.45488E-03    -.45488E-03    -.13420E+02     .95794E+00    -.88307E-02         .000      .000
    .360    -.54698E-03    -.54698E-03    -.16798E+02     .13243E+01    -.10069E-01         .000      .000
    .370    -.64457E-03    -.64457E-03    -.20092E+02     .15475E+01    -.81754E-02         .000      .000
    .380    -.68833E-03    -.68833E-03    -.19802E+02     .10152E+01     .30307E-03         .000      .000
    .390    -.63112E-03    -.63112E-03    -.14369E+02    -.59804E-01     .11157E-01         .000      .000
    .400    -.47273E-03    -.47273E-03    -.51461E+01    -.12063E+01     .19919E-01         .000      .000
    .410    -.24938E-03    -.24938E-03     .51231E+01    -.20135E+01     .23836E-01         .000      .000
    .420    -.19385E-04    -.19385E-04     .13291E+02    -.21283E+01     .20904E-01         .000      .000
    .430     .14856E-03     .14856E-03     .16530E+02    -.14289E+01     .11906E-01         .000      .000
    .440     .20155E-03     .20155E-03     .13588E+02     .54843E-02    -.21964E-02         .000      .000
    .450     .11323E-03     .11323E-03     .49959E+01     .16393E+01    -.14191E-01         .000      .000
    .460    -.67326E-04    -.67326E-04    -.48730E+01     .27849E+01    -.21673E-01         .000      .000
    .470    -.32545E-03    -.32545E-03    -.14968E+02     .37354E+01    -.30572E-01         .000      .000
    .480    -.66373E-03    -.66373E-03    -.24996E+02     .40995E+01    -.35481E-01         .000      .000
    .490    -.10072E-02    -.10072E-02    -.30736E+02     .31486E+01    -.32074E-01         .000      .000
    .500    -.13002E-02    -.13002E-02    -.31412E+02     .15237E+01    -.26775E-01         .000      .000
    .510    -.15565E-02    -.15565E-02    -.30810E+02     .29263E+00    -.25256E-01         .000      .000
    .520    -.17766E-02    -.17766E-02    -.30595E+02    -.85681E+00    -.15791E-01         .000      .000
    .530    -.18108E-02    -.18108E-02    -.23745E+02    -.31261E+01     .11906E-01         .000      .000
    .540    -.15033E-02    -.15033E-02    -.52723E+01    -.61838E+01     .50511E-01         .000      .000
    .550    -.79637E-03    -.79637E-03     .24037E+02    -.91554E+01     .90641E-01         .000      .000
    .560     .27877E-03     .27877E-03     .60544E+02    -.11279E+02     .12199E+00         .000      .000
    .570     .15967E-02     .15967E-02     .98213E+02    -.12135E+02     .13931E+00         .000      .000
    .580     .29913E-02     .29913E-02     .13140E+03    -.11467E+02     .13500E+00         .000      .000
    .590     .42276E-02     .42276E-02     .15217E+03    -.90241E+01     .10976E+00         .000      .000
    .600     .51837E-02     .51837E-02     .16041E+03    -.63427E+01     .82834E-01         .000      .000
    .610     .58909E-02     .58909E-02     .16259E+03    -.44276E+01     .58072E-01         .000      .000
    .620     .63442E-02     .63442E-02     .16005E+03    -.30588E+01     .32846E-01         .000      .000
    .630     .65181E-02     .65181E-02     .15246E+03    -.19088E+01    -.73632E-03         .000      .000
    .640     .62915E-02     .62915E-02     .13387E+03    -.24139E+00    -.45795E-01         .000      .000
    .650     .55719E-02     .55719E-02     .10056E+03     .20412E+01    -.99688E-01         .000      .000
    .660     .42582E-02     .42582E-02     .47167E+02     .59263E+01    -.16494E+00         .000      .000
    .670     .22496E-02     .22496E-02    -.31683E+02     .12155E+02    -.23715E+00         .000      .000
    .680    -.41861E-03    -.41861E-03    -.13249E+03     .19249E+02    -.29075E+00         .000      .000
    .690    -.34119E-02    -.34119E-02    -.23603E+03     .24052E+02    -.29943E+00         .000      .000
    .700    -.62635E-02    -.62635E-02    -.32104E+03     .25263E+02    -.26503E+00         .000      .000
    .710    -.86045E-02    -.86045E-02    -.37588E+03     .23193E+02    -.19836E+00         .000      .000
    .720    -.10113E-01    -.10113E-01    -.39173E+03     .17309E+02    -.97041E-01         .000      .000
    .730    -.10465E-01    -.10465E-01    -.36060E+03     .77740E+01     .28879E-01         .000      .000
    .740    -.96087E-02    -.96087E-02    -.29126E+03    -.14130E+01     .13518E+00         .000      .000
    .750    -.79150E-02    -.79150E-02    -.21099E+03    -.59588E+01     .19633E+00         .000      .000
    .760    -.57478E-02    -.57478E-02    -.13549E+03    -.67430E+01     .23658E+00         .000      .000
    .770    -.31946E-02    -.31946E-02    -.60139E+02    -.64350E+01     .27311E+00         .000      .000
    .780    -.31614E-03    -.31614E-03     .19636E+02    -.58141E+01     .30037E+00         .000      .000
    .790     .27945E-02     .27945E-02     .10688E+03    -.62143E+01     .32128E+00         .000      .000
    .800     .61185E-02     .61185E-02     .20898E+03    -.99346E+01     .34400E+00         .000      .000
    .810     .96019E-02     .96019E-02     .32775E+03    -.16721E+02     .34606E+00         .000      .000
    .820     .12872E-01     .12872E-01     .44412E+03    -.23372E+02     .29907E+00         .000      .000
    .830     .15429E-01     .15429E-01     .53336E+03    -.27850E+02     .20618E+00         .000      .000
    .840     .16874E-01     .16874E-01     .57697E+03    -.28606E+02     .77659E-01         .000      .000
    .850     .16931E-01     .16931E-01     .56216E+03    -.24669E+02    -.66389E-01         .000      .000
    .860     .15533E-01     .15533E-01     .48817E+03    -.16156E+02    -.21402E+00         .000      .000
    .870     .12704E-01     .12704E-01     .35940E+03    -.41278E+01    -.34670E+00         .000      .000
    .880     .87413E-02     .87413E-02     .19650E+03     .76156E+01    -.43803E+00         .000      .000
    .890     .40426E-02     .40426E-02     .21466E+02     .17579E+02    -.49922E+00         .000      .000
    .900    -.11538E-02    -.11538E-02    -.15659E+03     .25654E+02    -.53444E+00         .000      .000
    .910    -.65288E-02    -.65288E-02    -.32503E+03     .30487E+02    -.53475E+00         .000      .000
    .920    -.11769E-01    -.11769E-01    -.47608E+03     .33105E+02    -.51035E+00         .000      .000
    .930    -.16612E-01    -.16612E-01    -.60656E+03     .34010E+02    -.44963E+00         .000      .000
    .940    -.20532E-01    -.20532E-01    -.69822E+03     .30715E+02    -.32140E+00         .000      .000
    .950    -.22745E-01    -.22745E-01    -.72237E+03     .20837E+02    -.10572E+00         .000      .000
    .960    -.22430E-01    -.22430E-01    -.65383E+03     .46753E+01     .17595E+00         .000      .000
    .970    -.19391E-01    -.19391E-01    -.50332E+03    -.97482E+01     .41324E+00         .000      .000
    .980    -.14592E-01    -.14592E-01    -.33103E+03    -.13203E+02     .52428E+00         .000      .000
    .990    -.91814E-02    -.91814E-02    -.17852E+03    -.85719E+01     .54960E+00         .000      .000
   1.000    -.37483E-02    -.37483E-02    -.45054E+02    -.24135E+01     .52959E+00         .000      .000
   1.010     .14297E-02     .14297E-02     .79148E+02     .78738E+00     .51241E+00         .000      .000
   1.020     .66656E-02     .66656E-02     .22634E+03    -.45901E+01     .54346E+00         .000      .000
   1.030     .12301E-01     .12301E-01     .41521E+03    -.16871E+02     .57739E+00         .000      .000
   1.040     .17994E-01     .17994E-01     .62222E+03    -.30176E+02     .54713E+00         .000      .000
   1.050     .22893E-01     .22893E-01     .80409E+03    -.40375E+02     .41367E+00         .000      .000
   1.060     .25955E-01     .25955E-01     .91244E+03    -.44513E+02     .18714E+00         .000      .000
   1.070     .26492E-01     .26492E-01     .91778E+03    -.41578E+02    -.82218E-01         .000      .000
   1.080     .24374E-01     .24374E-01     .81531E+03    -.31691E+02    -.33303E+00         .000      .000
   1.090     .20155E-01     .20155E-01     .63363E+03    -.19234E+02    -.48951E+00         .000      .000
   1.100     .15019E-01     .15019E-01     .43151E+03    -.10623E+02    -.51742E+00         .000      .000
   1.110     .10066E-01     .10066E-01     .25519E+03    -.70359E+01    -.46671E+00         .000      .000
   1.120     .57549E-02     .57549E-02     .11399E+03    -.63060E+01    -.39448E+00         .000      .000
   1.130     .21255E-02     .21255E-02    -.82960E+00    -.62928E+01    -.33611E+00         .000      .000
   1.140    -.10441E-02    -.10441E-02    -.10938E+03    -.41149E+01    -.30015E+00         .000      .000
   1.150    -.40252E-02    -.40252E-02    -.23209E+03     .42467E+01    -.30573E+00         .000      .000
   1.160    -.72833E-02    -.72833E-02    -.39472E+03     .22182E+02    -.34881E+00         .000      .000
   1.170    -.10929E-01    -.10929E-01    -.59082E+03     .44953E+02    -.37293E+00         .000      .000
   1.180    -.14647E-01    -.14647E-01    -.78683E+03     .67012E+02    -.36934E+00         .000      .000
   1.190    -.18089E-01    -.18089E-01    -.94951E+03     .81776E+02    -.30271E+00         .000      .000
   1.200    -.20459E-01    -.20459E-01    -.10265E+04     .81905E+02    -.16381E+00         .000      .000
   1.210    -.21467E-01    -.21467E-01    -.10116E+04     .73399E+02    -.51281E-01         .000      .000
   1.220    -.21740E-01    -.21740E-01    -.95079E+03     .64455E+02    -.14516E-01         .000      .000
   1.230    -.21841E-01    -.21841E-01    -.87447E+03     .54360E+02    -.43427E-02         .000      .000
   1.240    -.21829E-01    -.21829E-01    -.78647E+03     .42479E+02     .64199E-02         .000      .000
   1.250    -.21571E-01    -.21571E-01    -.68882E+03     .29569E+02     .58174E-01         .000      .000
   1.260    -.20398E-01    -.20398E-01    -.55711E+03     .13144E+02     .18981E+00         .000      .000
   1.270    -.17578E-01    -.17578E-01    -.36820E+03    -.61891E+01     .38089E+00         .000      .000
   1.280    -.12797E-01    -.12797E-01    -.11874E+03    -.25861E+02     .56849E+00         .000      .000
   1.290    -.64586E-02    -.64586E-02     .16604E+03    -.42263E+02     .68257E+00         .000      .000
   1.300     .53290E-03     .53290E-03     .44680E+03    -.53614E+02     .70042E+00         .000      .000
   1.310     .72893E-02     .72893E-02     .69287E+03    -.60263E+02     .64010E+00         .000      .000
   1.320     .13171E-01     .13171E-01     .88657E+03    -.62686E+02     .53058E+00         .000      .000
   1.330     .17915E-01     .17915E-01     .10279E+04    -.63556E+02     .42329E+00         .000      .000
   1.340     .21640E-01     .21640E-01     .11329E+04    -.64561E+02     .31815E+00         .000      .000
   1.350     .24288E-01     .24288E-01     .12025E+04    -.65776E+02     .21439E+00         .000      .000
   1.360     .25931E-01     .25931E-01     .12457E+04    -.69410E+02     .11197E+00         .000      .000
   1.370     .26369E-01     .26369E-01     .12487E+04    -.71248E+02    -.35097E-01         .000      .000
   1.380     .25000E-01     .25000E-01     .11743E+04    -.65276E+02    -.24899E+00         .000      .000
   1.390     .21024E-01     .21024E-01     .97944E+03    -.44501E+02    -.56816E+00         .000      .000
   1.400     .13310E-01     .13310E-01     .61323E+03    -.40381E+01    -.98557E+00         .000      .000
   1.410     .16318E-02     .16318E-02     .93366E+02     .42365E+02    -.13169E+01         .000      .000
   1.420    -.12145E-01    -.12145E-01    -.45498E+03     .72385E+02    -.13900E+01         .000      .000
   1.430    -.25366E-01    -.25366E-01    -.90652E+03     .79886E+02    -.12219E+01         .000      .000
   1.440    -.36202E-01    -.36202E-01    -.12120E+04     .72977E+02    -.93590E+00         .000      .000
   1.450    -.43965E-01    -.43965E-01    -.13808E+04     .59258E+02    -.61315E+00         .000      .000
   1.460    -.48538E-01    -.48538E-01    -.14361E+04     .42903E+02    -.30992E+00         .000      .000
   1.470    -.50181E-01    -.50181E-01    -.14110E+04     .26329E+02    -.13246E-01         .000      .000
   1.480    -.48767E-01    -.48767E-01    -.13139E+04     .10927E+02     .29674E+00         .000      .000
   1.490    -.44221E-01    -.44221E-01    -.11587E+04     .23859E+01     .61552E+00         .000      .000
   1.500    -.36440E-01    -.36440E-01    -.94325E+03     .71755E+00     .93905E+00         .000      .000
   1.510    -.25506E-01    -.25506E-01    -.65313E+03     .82938E+00     .12405E+01         .000      .000
   1.520    -.11853E-01    -.11853E-01    -.27679E+03    -.38255E+01     .14733E+01         .000      .000
   1.530     .34218E-02     .34218E-02     .16352E+03    -.12740E+02     .15471E+01         .000      .000
   1.540     .18395E-01     .18395E-01     .59832E+03    -.20222E+02     .14145E+01         .000      .000
   1.550     .31277E-01     .31277E-01     .96862E+03    -.27063E+02     .11494E+01         .000      .000
   1.560     .41010E-01     .41010E-01     .12467E+04    -.32432E+02     .77592E+00         .000      .000
   1.570     .46356E-01     .46356E-01     .13784E+04    -.27620E+02     .27338E+00         .000      .000
   1.580     .46354E-01     .46354E-01     .13283E+04    -.13413E+02    -.26945E+00         .000      .000
   1.590     .41166E-01     .41166E-01     .11217E+04     .24577E+01    -.75441E+00         .000      .000
   1.600     .31592E-01     .31592E-01     .79999E+03     .16589E+02    -.11426E+01         .000      .000
   1.610     .18817E-01     .18817E-01     .40984E+03     .25327E+02    -.13827E+01         .000      .000
   1.620     .45781E-02     .45781E-02     .13991E+02     .24468E+02    -.14322E+01         .000      .000
   1.630    -.93939E-02    -.93939E-02    -.34180E+03     .18017E+02    -.13481E+01         .000      .000
   1.640    -.22101E-01    -.22101E-01    -.65506E+03     .12898E+02    -.11785E+01         .000      .000
   1.650    -.32619E-01    -.32619E-01    -.91213E+03     .81850E+01    -.90648E+00         .000      .000
   1.660    -.40009E-01    -.40009E-01    -.10917E+04     .50238E+01    -.56563E+00         .000      .000
   1.670    -.43794E-01    -.43794E-01    -.11913E+04     .61693E+01    -.18418E+00         .000      .000
   1.680    -.43673E-01    -.43673E-01    -.12010E+04     .11027E+02     .20385E+00         .000      .000
   1.690    -.39793E-01    -.39793E-01    -.11200E+04     .18201E+02     .56743E+00         .000      .000
   1.700    -.32495E-01    -.32495E-01    -.94145E+03     .23055E+02     .87896E+00         .000      .000
   1.710    -.22570E-01    -.22570E-01    -.67649E+03     .24342E+02     .10842E+01         .000      .000
   1.720    -.11196E-01    -.11196E-01    -.35420E+03     .21034E+02     .11729E+01         .000      .000
   1.730     .48231E-03     .48231E-03    -.31094E+01     .12927E+02     .11409E+01         .000      .000
   1.740     .11195E-01     .11195E-01     .33288E+03     .36656E+01     .98212E+00         .000      .000
   1.750     .19926E-01     .19926E-01     .62009E+03    -.74899E+01     .76172E+00         .000      .000
   1.760     .26370E-01     .26370E-01     .85461E+03    -.22106E+02     .52438E+00         .000      .000
   1.770     .30338E-01     .30338E-01     .10218E+04    -.35603E+02     .26618E+00         .000      .000
   1.780     .31639E-01     .31639E-01     .11012E+04    -.43897E+02    -.72648E-02         .000      .000
   1.790     .30216E-01     .30216E-01     .10815E+04    -.45749E+02    -.27368E+00         .000      .000
   1.800     .26267E-01     .26267E-01     .96653E+03    -.41856E+02    -.50957E+00         .000      .000
   1.810     .20274E-01     .20274E-01     .77470E+03    -.35043E+02    -.67264E+00         .000      .000
   1.820     .13232E-01     .13232E-01     .54870E+03    -.30491E+02    -.71261E+00         .000      .000
   1.830     .63172E-02     .63172E-02     .33070E+03    -.27851E+02    -.66167E+00         .000      .000
